4/22/2019,105.25,107.30000305175781,104.63999938964844,107.06999969482422,3886000,107.06999969482422
4/18/2019,101.94999694824219,104.29000091552734,101.5199966430664,103.87000274658203,3307000,103.87000274658203
4/17/2019,103.19000244140625,104.44999694824219,101.43000030517578,101.83999633789062,2445500,101.83999633789062
4/16/2019,101.86000061035156,102.81999969482422,100.9800033569336,102.3499984741211,2990100,102.3499984741211
4/15/2019,104.43000030517578,104.72000122070312,101.44000244140625,102.12000274658203,6091000,102.12000274658203
4/12/2019,102.08999633789062,106.4800033569336,101.8499984741211,105.30999755859375,7145100,105.08999633789062
4/11/2019,98.37999725341797,99.76000213623047,97.66000366210938,98.7300033569336,2640900,98.52375030517578
4/10/2019,99.33999633789062,100.05000305175781,98.4000015258789,98.7300033569336,3066200,98.52375030517578
4/9/2019,98.79000091552734,99.58999633789062,97.38999938964844,98.56999969482422,4005700,98.36408233642578
4/8/2019,99.12000274658203,100.98999786376953,98.97000122070312,99.4800033569336,4985900,99.27217864990234
4/5/2019,94.44999694824219,98.76000213623047,93.94000244140625,98.62999725341797,4505400,98.4239501953125
4/4/2019,94.05999755859375,94.5,92.91999816894531,93.66999816894531,5782700,93.47431182861328
4/3/2019,96.6500015258789,96.6500015258789,93.77999877929688,93.93000030517578,4351500,93.73377227783203
4/2/2019,97.08000183105469,97.7699966430664,96.01000213623047,96.05000305175781,2260100,95.84934997558594
4/1/2019,96.19000244140625,97.1500015258789,95.58000183105469,96.94000244140625,2633900,96.73748779296875
3/29/2019,96.37999725341797,96.58000183105469,94.8499984741211,95.18000030517578,2785600,94.98116302490234
3/28/2019,93.80999755859375,95.47000122070312,93.72000122070312,95.23999786376953,2768000,95.04103088378906
3/27/2019,94.31999969482422,95.44999694824219,93.63999938964844,94.58999633789062,2761700,94.39238739013672
3/26/2019,94.44999694824219,95.98999786376953,94.2699966430664,94.7699966430664,2393700,94.57201385498047
3/25/2019,93.55000305175781,94.12999725341797,91.9800033569336,92.77999877929688,2940500,92.58617401123047
3/22/2019,95.75,95.94999694824219,92.77999877929688,93.68000030517578,7873000,93.48429870605469
3/21/2019,95.81999969482422,97.2300033569336,94.38999938964844,96.87000274658203,5389100,96.66763305664062
3/20/2019,93.05000305175781,96.61000061035156,92.81999969482422,95.88999938964844,7928500,95.6896743774414
3/19/2019,92.81999969482422,93.12999725341797,92.33999633789062,92.87999725341797,7035400,92.68596649169922
3/18/2019,89.0199966430664,92.19000244140625,88.81999969482422,91.91999816894531,4197000,91.72796630859375
3/15/2019,89.11000061035156,90.36000061035156,88,88.8499984741211,8939900,88.66438293457031
3/14/2019,88.62000274658203,90.05000305175781,88.33999633789062,89.69000244140625,4338900,89.50263214111328
3/13/2019,88,88.66999816894531,86.7699966430664,88.56999969482422,6656000,88.38497161865234
3/12/2019,86.93000030517578,87.63999938964844,86.47000122070312,86.9800033569336,8308900,86.79829406738281
3/11/2019,86.7699966430664,87.87000274658203,86.13999938964844,86.26000213623047,7699100,86.07979583740234
3/8/2019,89.31999969482422,89.69999694824219,86.19000244140625,86.44000244140625,6761000,86.2594223022461
3/7/2019,92.06999969482422,92.12000274658203,90.58000183105469,91.3499984741211,3674200,91.15916442871094
3/6/2019,94.91999816894531,94.9800033569336,91.55999755859375,91.94000244140625,5079200,91.74793243408203
3/5/2019,97.04000091552734,97.30000305175781,95.2699966430664,95.5,3337000,95.30049133300781
3/4/2019,96.70999908447266,97.62999725341797,95.12000274658203,96.80999755859375,3729100,96.60774993896484
3/1/2019,94.63999938964844,97.01000213623047,94.38999938964844,96.41999816894531,5033900,96.21856689453125
2/28/2019,95.37000274658203,96.2300033569336,92.97000122070312,94,5204700,93.80362701416016
2/27/2019,95.54000091552734,98.4000015258789,93.98999786376953,95.04000091552734,6452100,94.8414535522461
2/26/2019,94.98999786376953,95.16999816894531,92.97000122070312,93.91000366210938,5777600,93.71382141113281
2/25/2019,95.12999725341797,95.70999908447266,94.16999816894531,94.75,6090800,94.55206298828125
2/22/2019,96.43000030517578,97.12000274658203,95.12000274658203,95.52999877929688,4163500,95.33042907714844
2/21/2019,98.33999633789062,98.66999816894531,94.56999969482422,95.3499984741211,3836800,95.15080261230469
2/20/2019,99.58000183105469,99.80999755859375,98.41999816894531,98.77999877929688,3456300,98.57363891601562
2/19/2019,99,100.27999877929688,98.41000366210938,99.70999908447266,2791500,99.50169372558594
2/15/2019,98.22000122070312,100.26000213623047,97.91000366210938,100.25,3038600,100.04057312011719
2/14/2019,96.33000183105469,97.83000183105469,96.25,96.95999908447266,2654700,96.75743865966797
2/13/2019,96.1500015258789,97.79000091552734,95.73999786376953,96.75,3469200,96.54788208007812
2/12/2019,95.77999877929688,97.12000274658203,95.19999694824219,95.62999725341797,3072400,95.43022155761719
2/11/2019,91.62999725341797,94.3499984741211,91.61000061035156,94.20999908447266,2625700,94.01318359375
2/8/2019,92.66999816894531,93.2699966430664,89.94000244140625,92.5,3073000,92.3067626953125
2/7/2019,95.45999908447266,95.7699966430664,91.7300033569336,92.98999786376953,3459000,92.79573059082031
2/6/2019,97.48999786376953,97.61000061035156,96.05999755859375,96.18000030517578,2723700,95.97907257080078
2/5/2019,99.2300033569336,99.6500015258789,97.87000274658203,98.3499984741211,1978000,98.14453887939453
2/4/2019,97.75,99.4000015258789,96.70999908447266,99.37999725341797,1788400,99.1723861694336
2/1/2019,99.87000274658203,100.48999786376953,98.55000305175781,98.8499984741211,2614700,98.64349365234375
1/31/2019,99.94000244140625,100.8499984741211,98.58999633789062,99.19999694824219,2500700,98.99275970458984
1/30/2019,99.69000244140625,99.9000015258789,98.37000274658203,99.44999694824219,3000600,99.24224090576172
1/29/2019,98.5999984741211,99.75,98.08999633789062,98.87000274658203,2873300,98.6634521484375
1/28/2019,97.43000030517578,98.25,96.48999786376953,98.0999984741211,2953000,97.89505767822266
1/25/2019,98.19000244140625,100.30000305175781,98.05000305175781,99.0999984741211,2417700,98.8929672241211
1/24/2019,96.5199966430664,98.05000305175781,95.79000091552734,97.23999786376953,3128900,97.03685760498047
1/23/2019,97.6500015258789,98.41999816894531,96.12999725341797,96.56999969482422,2679100,96.36825561523438
1/22/2019,99.76000213623047,100.05999755859375,96.62999725341797,96.86000061035156,4390200,96.65765380859375
1/18/2019,100.30000305175781,101.37000274658203,99.11000061035156,101.05000305175781,3299500,100.83889770507812
1/17/2019,98.36000061035156,99.3499984741211,97.11000061035156,99.05000305175781,2670800,98.84307861328125
1/16/2019,98.55000305175781,99.41999816894531,97.44000244140625,98.66999816894531,2800500,98.4638671875
1/15/2019,98.97000122070312,99.94000244140625,98,98.58999633789062,2452700,98.16448974609375
1/14/2019,95.66000366210938,99.01000213623047,95.27999877929688,98.51000213623047,3504800,98.08484649658203
1/11/2019,97.86000061035156,98.01000213623047,95.95999908447266,96.87000274658203,3206100,96.45191955566406
1/10/2019,98.0199966430664,99.31999969482422,97.27999877929688,99.12000274658203,3480400,98.69221496582031
1/9/2019,96.77999877929688,99.51000213623047,96.11000061035156,99.19000244140625,4739600,98.76190948486328
1/8/2019,95.66000366210938,96.11000061035156,94.33999633789062,95.5199966430664,3437800,95.10774230957031
1/7/2019,94.48999786376953,96.41000366210938,92.22000122070312,94.51000213623047,4453100,94.10210418701172
1/4/2019,91.69999694824219,94.30000305175781,91.08000183105469,93.91999816894531,3874200,93.5146484375
1/3/2019,90.5999984741211,91.22000122070312,88.26000213623047,89.97000122070312,2961700,89.58169555664062
1/2/2019,85.66000366210938,91.26000213623047,85.19999694824219,90.61000061035156,3863000,90.21893310546875
12/31/2018,88.20999908447266,88.9000015258789,86.37000274658203,87.20999908447266,3571100,86.83361053466797
12/28/2018,89.23999786376953,89.33000183105469,86.1500015258789,87.5199966430664,3325200,87.14226531982422
12/27/2018,87.0999984741211,88.79000091552734,85.05000305175781,88.79000091552734,4305200,88.40679168701172
12/26/2018,83.83000183105469,89.02999877929688,82.04000091552734,88.98999786376953,4488200,88.60592651367188
12/24/2018,86.2300033569336,86.7300033569336,82.77999877929688,82.86000061035156,2773400,82.50238037109375
12/21/2018,89.44000244140625,90.48999786376953,86.81999969482422,87.26000213623047,7468800,86.88339233398438
12/20/2018,91.52999877929688,93.3499984741211,89.0199966430664,89.73999786376953,5743800,89.3526840209961
12/19/2018,94.95999908447266,97.13999938964844,92.30000305175781,92.9800033569336,4046700,92.5787124633789
12/18/2018,96.37000274658203,96.95999908447266,93.70999908447266,94.01000213623047,4658700,93.60426330566406
12/17/2018,99.54000091552734,100.2699966430664,95.45999908447266,96.20999908447266,4816100,95.79476928710938
12/14/2018,102.27999877929688,102.94999694824219,99.05999755859375,100.08000183105469,3088500,99.64806365966797
12/13/2018,103.22000122070312,104.30000305175781,101.45999908447266,102.83000183105469,2685200,102.38619995117188
12/12/2018,104.23999786376953,106.5999984741211,103.83000183105469,103.93000030517578,3443300,103.48145294189453
12/11/2018,103.56999969482422,104.3499984741211,101.69000244140625,102.06999969482422,3713800,101.62947082519531
12/10/2018,102.05000305175781,103.26000213623047,99.20999908447266,101.70999908447266,3368700,101.27103424072266
12/7/2018,104.76000213623047,107.63999938964844,103.41000366210938,103.61000061035156,5226600,103.16282653808594
12/6/2018,101.44999694824219,102.29000091552734,99.55999755859375,102.12999725341797,5046200,101.68921661376953
12/4/2018,108.31999969482422,108.77999877929688,103.6500015258789,104.06999969482422,3153900,103.620849609375
12/3/2018,107.11000061035156,108.37999725341797,106.16000366210938,108.11000061035156,4061400,107.6434097290039
11/30/2018,104.38999938964844,104.68000030517578,102.88999938964844,103.30999755859375,5268900,102.86412811279297
11/29/2018,103.97000122070312,106.58999633789062,103.58999633789062,105.47000122070312,2661900,105.01480102539062
11/28/2018,101.98999786376953,104.05999755859375,101.58000183105469,103.7699966430664,3580800,103.32213592529297
11/27/2018,102.26000213623047,103.05999755859375,100.76000213623047,101.94999694824219,3554900,101.50999450683594
11/26/2018,101.69999694824219,102.7300033569336,101.02999877929688,102.54000091552734,3664200,102.09744262695312
11/23/2018,101.62999725341797,102.20999908447266,99.37999725341797,100.69999694824219,3373700,100.265380859375
11/21/2018,103.29000091552734,107.56999969482422,103.2300033569336,106,5253400,105.54251098632812
11/20/2018,103.44999694824219,103.97000122070312,101.37000274658203,102.36000061035156,5704300,101.91822814941406
11/19/2018,103.98999786376953,106.12999725341797,103.61000061035156,105.70999908447266,4309300,105.2537612915039
11/16/2018,103,105.58999633789062,102.69999694824219,105.19999694824219,6065000,104.74596405029297
11/15/2018,97.91000366210938,101.95999908447266,96.80999755859375,101.58999633789062,4217600,101.15155029296875
11/14/2018,100.75,101.0999984741211,97.23999786376953,98.06999969482422,4669900,97.64673614501953
11/13/2018,101.22000122070312,102.41000366210938,98.08000183105469,98.5199966430664,5175700,98.09479522705078
11/12/2018,106.83999633789062,106.94999694824219,101.02999877929688,101.25,3267000,100.81301879882812
11/9/2018,103.08999633789062,106.22000122070312,102.5,105.51000213623047,3486000,105.05462646484375
11/8/2018,108.7300033569336,108.94999694824219,104.72000122070312,104.8499984741211,4150100,104.39747619628906
11/7/2018,109.25,110.19999694824219,107.36000061035156,109.1500015258789,3424400,108.67892456054688
11/6/2018,107.05999755859375,107.54000091552734,105.44000244140625,107.33000183105469,4336700,106.86677551269531
11/5/2018,104.54000091552734,107.11000061035156,104.04000091552734,106.3499984741211,5029700,105.89099884033203
11/2/2018,106.1500015258789,106.48999786376953,100.83999633789062,102.3499984741211,6607500,101.90826416015625
11/1/2018,105.9800033569336,107.30000305175781,103.8499984741211,106.88999938964844,3771700,106.42867279052734
10/31/2018,106.68000030517578,108.72000122070312,105.06999969482422,105.33999633789062,4010900,104.88536071777344
10/30/2018,101.69000244140625,106.16000366210938,101.02999877929688,105.51000213623047,4274200,105.05462646484375
10/29/2018,106.94999694824219,107,100.62999725341797,102.04000091552734,4307400,101.59960174560547
10/26/2018,105.58999633789062,107.37000274658203,103.48999786376953,106.55999755859375,4332300,106.10009765625
10/25/2018,107.87000274658203,108.86000061035156,106.36000061035156,107.12000274658203,2926600,106.65768432617188
10/24/2018,111.77999877929688,111.94999694824219,106,106.13999938964844,5540900,105.68191528320312
10/23/2018,114.16999816894531,114.37999725341797,109.52999877929688,111.12000274658203,5023700,110.64041900634766
10/22/2018,118.0999984741211,118.33999633789062,115.4000015258789,116.25,1593500,115.74827575683594
10/19/2018,118.58999633789062,120.6500015258789,117.08000183105469,117.66999816894531,3547500,117.16214752197266
10/18/2018,118.55000305175781,119.25,117.55000305175781,118.55000305175781,2096900,118.0383529663086
10/17/2018,122.20999908447266,122.58999633789062,118.48999786376953,120.13999938964844,2576200,119.6214828491211
10/16/2018,122.86000061035156,123.4800033569336,122.05999755859375,122.26000213623047,2426900,121.73234558105469
10/15/2018,122.94999694824219,123.55999755859375,121.94999694824219,122.56999969482422,2277500,121.82195281982422
10/12/2018,123.62000274658203,123.77999877929688,120.37999725341797,122.18000030517578,2955300,121.43433380126953
10/11/2018,125.29000091552734,125.4800033569336,120.81999969482422,121.62000274658203,4761000,120.87775421142578
10/10/2018,132,132,126.3499984741211,126.47000122070312,3450700,125.69815063476562
10/9/2018,130.22000122070312,133.52999877929688,130.10000610351562,132.35000610351562,2453900,131.54226684570312
10/8/2018,129.97999572753906,131.33999633789062,129.22999572753906,129.8300018310547,2115500,129.0376434326172
10/5/2018,130.33999633789062,131.10000610351562,129.60000610351562,131.0500030517578,2244000,130.2501983642578
10/4/2018,129.9199981689453,130.5,129.1300048828125,130.22999572753906,3223200,129.43519592285156
10/3/2018,130.1699981689453,130.5399932861328,129.25,130.3800048828125,3172400,129.5843048095703
10/2/2018,129.75,130.05999755859375,128.74000549316406,130,3278200,129.20660400390625
10/1/2018,127.93000030517578,129.80999755859375,127.77999877929688,129.49000549316406,2024600,128.69973754882812
9/28/2018,126.55000305175781,129.08999633789062,126.55000305175781,127.56999969482422,2724600,126.79144287109375
9/27/2018,126.56999969482422,127.6500015258789,125.72000122070312,127,2925500,126.22492218017578
9/26/2018,125.44999694824219,126.37999725341797,125.01000213623047,125.30999755859375,3106200,124.54522705078125
9/25/2018,124.58000183105469,126.5,124.26000213623047,125.63999938964844,3873600,124.87321472167969
9/24/2018,121.41999816894531,124.19000244140625,121.16999816894531,123.98999786376953,3593400,123.23328399658203
9/21/2018,118.5199966430664,120.61000061035156,118.04000091552734,119.45999908447266,4784400,118.73092651367188
9/20/2018,120.43000030517578,120.98999786376953,118.7699966430664,119.20999908447266,1997500,118.48246002197266
9/19/2018,119.44999694824219,120.56999969482422,119.12999725341797,120.16999816894531,1767300,119.43659973144531
9/18/2018,118.75,120.30000305175781,118.45999908447266,119.44999694824219,1868100,118.72098541259766
9/17/2018,118.31999969482422,118.75,117.06999969482422,117.54000091552734,2537200,116.8226547241211
9/14/2018,116.56999969482422,118.52999877929688,116.56999969482422,117.81999969482422,1536600,117.10093688964844
9/13/2018,116.80000305175781,117.12999725341797,115.02999877929688,116.62000274658203,2336000,115.90827178955078
9/12/2018,117.29000091552734,119.08999633789062,116.87999725341797,116.94000244140625,2236000,116.22631072998047
9/11/2018,114.38999938964844,117.16999816894531,114.08000183105469,116.22000122070312,2370900,115.51070404052734
9/10/2018,115,115.5199966430664,114.19999694824219,114.31999969482422,1778700,113.62230682373047
9/7/2018,114.9800033569336,115.31999969482422,113.69999694824219,114.47000122070312,3288600,113.7713851928711
9/6/2018,117.77999877929688,118.12999725341797,115.20999908447266,115.5,1982400,114.79509735107422
9/5/2018,116.80999755859375,118.26000213623047,116.22000122070312,117.88999938964844,2081600,117.1705093383789
9/4/2018,119.04000091552734,119.3499984741211,116.75,117.68000030517578,1703100,116.96179962158203
8/31/2018,118.56999969482422,118.80999755859375,117.66999816894531,118.2300033569336,2020100,117.5084457397461
8/30/2018,118.13999938964844,119.47000122070312,118.13999938964844,118.91000366210938,2096800,118.18429565429688
8/29/2018,119.04000091552734,119.5,118.05000305175781,118.77999877929688,2070900,118.05508422851562
8/28/2018,118.62999725341797,119.7300033569336,117.7699966430664,117.97000122070312,1970700,117.25003051757812
8/27/2018,117.58999633789062,118.97000122070312,117.2699966430664,118.6500015258789,1816500,117.92587280273438
8/24/2018,117.63999938964844,118.98999786376953,117.3499984741211,117.45999908447266,2147100,116.74313354492188
8/23/2018,116.70999908447266,116.80000305175781,115.73999786376953,116.4000015258789,2074800,115.68960571289062
8/22/2018,116.23999786376953,117.91999816894531,116.23999786376953,117.31999969482422,2104200,116.60398864746094
8/21/2018,115.91999816894531,116.62000274658203,115.29000091552734,115.48999786376953,2548800,114.78515625
8/20/2018,115.22000122070312,115.73999786376953,114.62999725341797,114.7699966430664,4020600,114.0695571899414
8/17/2018,116.51000213623047,116.75,114.05000305175781,114.7699966430664,4492900,114.0695571899414
8/16/2018,116.11000061035156,117.06999969482422,115.66999816894531,115.91000366210938,3702300,115.20259857177734
8/15/2018,121.47000122070312,121.7300033569336,114.70999908447266,115.44000244140625,4184000,114.7354736328125
8/14/2018,122.9000015258789,123.56999969482422,122.04000091552734,123.06999969482422,1469900,122.31890106201172
8/13/2018,122.79000091552734,123.5,121.13999938964844,121.5,1563400,120.75848388671875
8/10/2018,122.19999694824219,122.88999938964844,121.37000274658203,122.7699966430664,2268000,122.0207290649414
8/9/2018,123.19999694824219,123.9000015258789,121.87999725341797,122.30999755859375,1852900,121.56353759765625
8/8/2018,123.30000305175781,124.37999725341797,121.5,122.7699966430664,3146000,122.0207290649414
8/7/2018,125,126.29000091552734,124.30999755859375,124.43000030517578,1774000,123.67060089111328
8/6/2018,123.18000030517578,125.0999984741211,122,123.9000015258789,2396000,123.14383697509766
8/3/2018,122.75,125.01000213623047,120.83999633789062,122.41000366210938,4117700,121.66293334960938
8/2/2018,124.55999755859375,126.30999755859375,123.51000213623047,125.93000030517578,3510600,125.16144561767578
8/1/2018,127.56999969482422,128.5500030517578,124.91999816894531,125.56999969482422,3525500,124.80363464355469
7/31/2018,130.2899932861328,131.39999389648438,128.32000732421875,128.94000244140625,2467900,128.15309143066406
7/30/2018,130.4499969482422,131.60000610351562,129.52999877929688,129.89999389648438,2053300,129.10720825195312
7/27/2018,128.32000732421875,130.49000549316406,127.76000213623047,129.14999389648438,2423600,128.36178588867188
7/26/2018,128.94000244140625,129.75,128.36000061035156,128.86000061035156,2860300,128.0735626220703
7/25/2018,125.62999725341797,128.6699981689453,125.31999969482422,128.3800048828125,2602300,127.59649658203125
7/24/2018,123.69000244140625,127.12000274658203,122.9800033569336,125.62000274658203,2850900,124.85334777832031
7/23/2018,123.16000366210938,123.45999908447266,122.29000091552734,122.86000061035156,1746300,122.11018371582031
7/20/2018,122.68000030517578,123.30999755859375,121.44000244140625,122.3499984741211,1540000,121.60328674316406
7/19/2018,122.73999786376953,123.58000183105469,122.19000244140625,122.38999938964844,2889300,121.64305114746094
7/18/2018,123.33999633789062,124.20999908447266,121.16000366210938,123.58000183105469,3280200,122.82579040527344
7/17/2018,124.19999694824219,124.98999786376953,122.11000061035156,124.31999969482422,3869200,123.56127166748047
7/16/2018,124.7699966430664,125.44000244140625,122.9000015258789,124.61000061035156,3210200,123.84950256347656
7/13/2018,124.38999938964844,127.01000213623047,124.12999725341797,125.95999908447266,1820000,125.00739288330078
7/12/2018,124.91000366210938,125.66999816894531,123.0999984741211,124.13999938964844,1971200,123.20115661621094
7/11/2018,126.05999755859375,126.81999969482422,123.62999725341797,124.66000366210938,1963800,123.71723175048828
7/10/2018,127.2699966430664,127.95999908447266,126.05999755859375,126.97000122070312,1996200,126.00975036621094
7/9/2018,125,126.45999908447266,124.51000213623047,126.12999725341797,1671900,125.17610168457031
7/6/2018,122.18000030517578,124.94999694824219,122.01000213623047,124.3499984741211,1443700,123.4095687866211
7/5/2018,123.6500015258789,125.04000091552734,122.70999908447266,123.22000122070312,2483900,122.28811645507812
7/3/2018,124.0199966430664,125.4000015258789,122.01000213623047,122.43000030517578,1382800,121.50408172607422
7/2/2018,123.80999755859375,123.86000061035156,121.11000061035156,122.4000015258789,2310800,121.47431945800781
6/29/2018,123.43000030517578,126.31999969482422,123.29000091552734,124.43000030517578,3020200,123.48896789550781
6/28/2018,124.16999816894531,125.5,122.51000213623047,123.5,2679500,122.56599426269531
6/27/2018,121.62999725341797,124.77999877929688,120.80999755859375,123.93000030517578,4708800,122.99274444580078
6/26/2018,117.04000091552734,120.45999908447266,117.04000091552734,119.68000030517578,2472600,118.77488708496094
6/25/2018,118.83999633789062,118.94999694824219,115.91000366210938,116.83000183105469,1946300,115.94644927978516
6/22/2018,120.05000305175781,120.94999694824219,118.19999694824219,118.51000213623047,3173100,117.61373901367188
6/21/2018,118.38999938964844,118.38999938964844,116.01000213623047,116.5999984741211,3003600,115.71817779541016
6/20/2018,118.25,119.81999969482422,117.4000015258789,119.43000030517578,2383600,118.52677917480469
6/19/2018,115.0199966430664,117.7699966430664,114.0999984741211,117.08000183105469,2448000,116.19454956054688
6/18/2018,114.4000015258789,117.87000274658203,114,116.62000274658203,3180900,115.738037109375
6/15/2018,116.91000366210938,117.0999984741211,113.93000030517578,114.18000030517578,5028600,113.31648254394531
6/14/2018,119.3499984741211,119.48999786376953,117.41000366210938,117.52999877929688,2856600,116.64114379882812
6/13/2018,118.48999786376953,119.7300033569336,117.7699966430664,118.25,2364900,117.35570526123047
6/12/2018,117.91000366210938,119.11000061035156,117.30999755859375,118.47000122070312,3396800,117.57404327392578
6/11/2018,117.95999908447266,118.69000244140625,116.5,118.01000213623047,2374900,117.11751556396484
6/8/2018,118.16000366210938,118.72000122070312,116.6500015258789,117.66999816894531,2413500,116.78009033203125
6/7/2018,117.41999816894531,119.2699966430664,116.62000274658203,117.93000030517578,3737100,117.03813171386719
6/6/2018,116.30000305175781,117.41000366210938,114.86000061035156,116.13999938964844,4361100,115.26165008544922
6/5/2018,118.0199966430664,118.23999786376953,114.80000305175781,116.58000183105469,4158700,115.69832611083984
6/4/2018,120.05999755859375,121.05000305175781,117.79000091552734,118.66999816894531,3756500,117.77251434326172
6/1/2018,118.4800033569336,118.55999755859375,117.08999633789062,118.3499984741211,2919400,117.45494079589844
5/31/2018,118.8499984741211,120.22000122070312,117.7300033569336,117.80999755859375,3544200,116.91903686523438
5/30/2018,117.54000091552734,120.22000122070312,117.16000366210938,119.76000213623047,2894000,118.85427856445312
5/29/2018,116.0999984741211,117.62000274658203,115.16000366210938,116.20999908447266,3255200,115.33113098144531
5/25/2018,117.44000244140625,117.94000244140625,115.30999755859375,117.76000213623047,3935600,116.8694076538086
5/24/2018,121.25,121.69999694824219,119.66999816894531,119.9800033569336,3176200,119.07261657714844
5/23/2018,123.23999786376953,124.22000122070312,121.68000030517578,122.9800033569336,4327800,122.0499267578125
5/22/2018,127.30000305175781,127.95999908447266,123.08000183105469,123.76000213623047,2397200,122.82403564453125
5/21/2018,126.87999725341797,128.02999877929688,126,127.44999694824219,2573300,126.48612213134766
5/18/2018,126.27999877929688,126.4800033569336,124.27999877929688,125.79000091552734,4064400,124.83867645263672
5/17/2018,122,126.44999694824219,122,126.1500015258789,5721400,125.19595336914062
5/16/2018,119.80000305175781,121.87000274658203,119.58000183105469,121.5,2900200,120.58112335205078
5/15/2018,118.4800033569336,120.41000366210938,118.3499984741211,120.2300033569336,3191200,119.32072448730469
5/14/2018,118.11000061035156,119.5999984741211,118.08999633789062,118.68000030517578,2645100,117.7824478149414
5/11/2018,119.0199966430664,120,117.01000213623047,117.41000366210938,2951200,116.52206420898438
5/10/2018,118.75,119.45999908447266,118.44999694824219,118.94999694824219,4093100,118.05040740966797
5/9/2018,117.16000366210938,118.80999755859375,115.9000015258789,117.79000091552734,6104700,116.89917755126953
5/8/2018,113.66000366210938,115.58999633789062,112.19000244140625,115.29000091552734,3886200,114.41809844970703
5/7/2018,115.80999755859375,117.12000274658203,113.19999694824219,113.88999938964844,5991300,113.02867126464844
5/4/2018,115,115.9800033569336,111.4800033569336,114.66000366210938,5725000,113.79285430908203
5/3/2018,115.9000015258789,116.12999725341797,114.0999984741211,116.01000213623047,4269500,115.13264465332031
5/2/2018,117.54000091552734,118.58999633789062,116.12000274658203,116.6500015258789,4779500,115.76780700683594
5/1/2018,117.66000366210938,117.94999694824219,116.18000030517578,117.55999755859375,2364900,116.67091369628906
4/30/2018,116.58999633789062,119.70999908447266,116.33000183105469,118.16999816894531,3315500,117.27629852294922
4/27/2018,116.75,117.80999755859375,116.12999725341797,116.79000091552734,1822100,115.90673828125
4/26/2018,116.41000366210938,117.80000305175781,115.87000274658203,117.62000274658203,3439900,116.73046875
4/25/2018,113.93000030517578,115.83999633789062,113.06999969482422,115.4000015258789,3506900,114.52726745605469
4/24/2018,115.31999969482422,116.43000030517578,113.37000274658203,114.58999633789062,3632300,113.72338104248047
4/23/2018,113.6500015258789,114.95999908447266,112.80999755859375,114.83999633789062,2146900,113.97148895263672
4/20/2018,113.52999877929688,114.56999969482422,112.66000366210938,113.97000122070312,3112400,113.10807800292969
4/19/2018,113.41000366210938,114.70999908447266,112.4800033569336,114.04000091552734,4963200,113.17753601074219
4/18/2018,112.11000061035156,114.18000030517578,111.5999984741211,112.8499984741211,5109500,111.99654388427734
4/17/2018,111.16000366210938,111.86000061035156,110.36000061035156,111.1500015258789,3720100,110.30940246582031
4/16/2018,111.6500015258789,111.69000244140625,110.69999694824219,111.0199966430664,2745000,110.18038177490234
4/13/2018,110.44999694824219,111.25,109.62000274658203,111.0199966430664,3338200,110.18038177490234
4/12/2018,109.47000122070312,110.83999633789062,108.20999908447266,109.9800033569336,4378400,108.96464538574219
4/11/2018,107.43000030517578,110.13999938964844,106.94000244140625,109.4000015258789,3466500,108.39000701904297
4/10/2018,105.08999633789062,109.08000183105469,105,107.66000366210938,5435600,106.66606903076172
4/9/2018,102.4800033569336,105.31999969482422,101.83000183105469,103.37999725341797,4634300,102.42558288574219
4/6/2018,104.06999969482422,104.06999969482422,98.80000305175781,101.93000030517578,6473900,100.98896026611328
4/5/2018,104.5999984741211,105.37999725341797,103.77999877929688,104.37999725341797,3842500,103.41635131835938
4/4/2018,103.55000305175781,104.55999755859375,103.05000305175781,104.16999816894531,4241900,103.20828247070312
4/3/2018,103.4800033569336,105.30999755859375,101.79000091552734,105.06999969482422,3477100,104.09996795654297
4/2/2018,104.94000244140625,105.13999938964844,100.23999786376953,102.93000030517578,3757700,101.979736328125
3/29/2018,104.6500015258789,105.86000061035156,104.16999816894531,105.2699966430664,3393000,104.2981185913086
3/28/2018,105.80000305175781,107.19999694824219,103.26000213623047,103.81999969482422,5512400,102.86151123046875
3/27/2018,107.45999908447266,107.91000366210938,105.48999786376953,106.33000183105469,5199900,105.34834289550781
3/26/2018,106.87000274658203,107.6500015258789,105.72000122070312,107.56999969482422,4818100,106.57688903808594
3/23/2018,104.75,106.7300033569336,104.69999694824219,105.86000061035156,6576400,104.88268280029297
3/22/2018,103.5199966430664,105.08000183105469,103.16000366210938,104.29000091552734,6672800,103.3271713256836
3/21/2018,101.72000122070312,105.83000183105469,101.63999938964844,104.77999877929688,5288900,103.81265258789062
3/20/2018,99.3499984741211,101.66999816894531,99.23999786376953,101.33000183105469,4555100,100.3945083618164
3/19/2018,99.87999725341797,100.4000015258789,97.44000244140625,98.47000122070312,2605100,97.56092071533203
3/16/2018,98.87000274658203,100.86000061035156,98.55000305175781,100.44999694824219,4950800,99.52262115478516
3/15/2018,100.38999938964844,100.72000122070312,98.18000030517578,98.6500015258789,3843000,97.73924255371094
3/14/2018,100.80000305175781,100.9000015258789,99.63999938964844,99.88999938964844,2189300,98.9677963256836
3/13/2018,101.37000274658203,101.7699966430664,99.68000030517578,100.05000305175781,3210400,99.12632751464844
3/12/2018,102.5,102.81999969482422,100.48999786376953,100.6500015258789,5209100,99.72077941894531
3/9/2018,101.58000183105469,102.9000015258789,101.27999877929688,102.80000305175781,2910200,101.85093688964844
3/8/2018,101.52999877929688,101.5999984741211,99.66000366210938,100.58999633789062,2525900,99.66133880615234
3/7/2018,99.9800033569336,101.0999984741211,99.33000183105469,100.87000274658203,3331400,99.93875122070312
3/6/2018,102.70999908447266,102.94000244140625,100.73999786376953,101.01000213623047,3421300,100.07746124267578
3/5/2018,100.91000366210938,102.76000213623047,100.4000015258789,101.80999755859375,3129500,100.87007141113281
3/2/2018,100.54000091552734,102.20999908447266,99.4000015258789,101.44999694824219,4040000,100.51339721679688
3/1/2018,101.79000091552734,102.11000061035156,99.83999633789062,101.18000030517578,4604900,100.24588775634766
2/28/2018,101.62999725341797,106.4000015258789,101.30999755859375,101.41999816894531,7738700,100.48367309570312
2/27/2018,109.27999877929688,109.52999877929688,106.73999786376953,106.94000244140625,3581300,105.95271301269531
2/26/2018,109.55999755859375,110.16000366210938,108.56999969482422,109.48999786376953,4474300,108.47916412353516
2/23/2018,107.7300033569336,108.87999725341797,107.33000183105469,108.83000183105469,2063900,107.82526397705078
2/22/2018,106.69999694824219,109.11000061035156,105.94000244140625,107.08999633789062,3165900,106.10132598876953
2/21/2018,107.6500015258789,108.73999786376953,105.77999877929688,105.80999755859375,4119300,104.83314514160156
2/20/2018,107.77999877929688,109.02999877929688,106.1500015258789,107.95999908447266,3381600,106.96330261230469
2/16/2018,107.13999938964844,108.73999786376953,106.5999984741211,107.63999938964844,2973500,106.64624786376953
2/15/2018,106.5999984741211,108.05999755859375,105.01000213623047,107.69000244140625,3495500,106.69579315185547
2/14/2018,101.58000183105469,107.05999755859375,101.5,106.76000213623047,4089200,105.77437591552734
2/13/2018,102.48999786376953,103.23999786376953,101.61000061035156,102.47000122070312,1735300,101.52397918701172
2/12/2018,101.54000091552734,104.02999877929688,101.33000183105469,103.13999938964844,3551500,102.18780517578125
2/9/2018,101.88999938964844,102.5999984741211,96.54000091552734,100.06999969482422,5335700,99.14613342285156
2/8/2018,106.0199966430664,106.5,100.9800033569336,101.04000091552734,4675600,100.10718536376953
2/7/2018,108.41999816894531,109.70999908447266,105.76000213623047,105.77999877929688,4666000,104.80342864990234
2/6/2018,107.76000213623047,110.9000015258789,106.08999633789062,108.2699966430664,4635500,107.27043151855469
2/5/2018,111.69999694824219,113.87999725341797,109,109.55999755859375,3175900,108.54852294921875
2/2/2018,115.01000213623047,115.19000244140625,112.41000366210938,112.83000183105469,2549400,111.78833770751953
2/1/2018,115.27999877929688,116.56999969482422,114.58000183105469,116.5199966430664,2507600,115.44425964355469
1/31/2018,115.31999969482422,115.7300033569336,114.43000030517578,115,2409800,113.93830871582031
1/30/2018,115.9800033569336,115.9800033569336,113.9000015258789,115.16999816894531,3589100,114.10672760009766
1/29/2018,117.12000274658203,118.12999725341797,116.41999816894531,116.58000183105469,1584900,115.50370788574219
1/26/2018,117.05999755859375,118.05999755859375,116.80000305175781,117.76000213623047,2170900,116.67282104492188
1/25/2018,118.91999816894531,119,117.02999877929688,117.44999694824219,2061200,116.36567687988281
1/24/2018,117.98999786376953,118.9000015258789,117.19999694824219,118.47000122070312,2463900,117.37626647949219
1/23/2018,117.05000305175781,118.5999984741211,116.87999725341797,117.83999633789062,3150700,116.7520751953125
1/22/2018,114.52999877929688,116.86000061035156,114.41000366210938,116.81999969482422,2233200,115.74150085449219
1/19/2018,113.94999694824219,114.76000213623047,113.47000122070312,114.37000274658203,2920600,113.31411743164062
1/18/2018,113.36000061035156,115.16000366210938,112.81999969482422,114.23999786376953,4564600,113.18531799316406
1/17/2018,113.70999908447266,114.3499984741211,112.13999938964844,113.52999877929688,3310400,112.48187255859375
1/16/2018,115.81999969482422,116.44000244140625,113.08000183105469,113.38999938964844,4835600,112.34317016601562
1/12/2018,114.94999694824219,116.47000122070312,114.79000091552734,115.69999694824219,2025300,114.46588134765625
1/11/2018,112.79000091552734,115.72000122070312,112.45999908447266,115.13999938964844,3828100,113.911865234375
1/10/2018,111.94000244140625,113.75,111.86000061035156,112.01000213623047,4750900,110.81523895263672
1/9/2018,112.93000030517578,113.0999984741211,111.54000091552734,111.70999908447266,1944100,110.51844024658203
1/8/2018,112.44000244140625,113.22000122070312,111.6500015258789,112.70999908447266,1934400,111.50777435302734
1/5/2018,110.66000366210938,112.30000305175781,110.12000274658203,112.16999816894531,2221200,110.9735336303711
1/4/2018,110.38999938964844,111.20999908447266,109.75,110.94999694824219,2125000,109.76654052734375
1/3/2018,110.13999938964844,111.83000183105469,109.81999969482422,110.93000030517578,3068400,109.74676513671875
1/2/2018,108.66999816894531,109.38999938964844,108.22000122070312,109.30000305175781,1899800,108.13414764404297
12/29/2017,109.11000061035156,109.11000061035156,107.87999725341797,107.91000366210938,1778200,106.75897979736328
12/28/2017,108.5,108.62999725341797,107.86000061035156,108.44999694824219,1250500,107.29322052001953
12/27/2017,109.05999755859375,109.30000305175781,107.72000122070312,108.36000061035156,1802000,107.20417022705078
12/26/2017,107.23999786376953,109.66000366210938,107,109.41000366210938,2071500,108.24298095703125
12/22/2017,106.69999694824219,107.87999725341797,105.87999725341797,107.11000061035156,2028700,105.9675064086914
12/21/2017,103.7300033569336,106.75,103.23999786376953,106.3499984741211,3330300,105.21560668945312
12/20/2017,102.05000305175781,103.81999969482422,101.20999908447266,103.54000091552734,2651800,102.43558502197266
12/19/2017,100.33999633789062,101.80000305175781,99.68000030517578,101.43000030517578,2374400,100.34809875488281
12/18/2017,98.69999694824219,100.16999816894531,98.68000030517578,99.91000366210938,2670300,98.84432220458984
12/15/2017,100.54000091552734,100.63999938964844,98.47000122070312,98.55000305175781,4633000,97.49880981445312
12/14/2017,99.76000213623047,100.83000183105469,99.55000305175781,99.63999938964844,2425000,98.57719421386719
12/13/2017,100.45999908447266,100.72000122070312,99.70999908447266,99.94000244140625,1426900,98.87399291992188
12/12/2017,101.37000274658203,101.41999816894531,99.44000244140625,100.27999877929688,2127600,99.21036529541016
12/11/2017,100.48999786376953,102.33999633789062,100.4000015258789,101.20999908447266,1946800,100.13043212890625
12/8/2017,100.27999877929688,100.73999786376953,99.75,100.38999938964844,1512400,99.31918334960938
12/7/2017,98.88999938964844,99.83000183105469,98.51000213623047,99.72000122070312,1687600,98.65632629394531
12/6/2017,100.43000030517578,100.44999694824219,98.48999786376953,98.86000061035156,2768400,97.80551147460938
12/5/2017,100.69000244140625,101.7699966430664,100.5199966430664,100.9000015258789,2046000,99.8237533569336
12/4/2017,102.69000244140625,103.02999877929688,100.98999786376953,101.05000305175781,2423500,99.9721450805664
12/1/2017,103.31999969482422,104.41999816894531,101.66000366210938,102.91000366210938,3445800,101.81231689453125
11/30/2017,101,102.7300033569336,101,102.31999969482422,4183700,101.22860717773438
11/29/2017,99.55999755859375,100.52999877929688,99.25,100.5,2721600,99.42800903320312
11/28/2017,99.75,100.18000030517578,99.11000061035156,99.83999633789062,2037200,98.7750473022461
11/27/2017,101.56999969482422,101.79000091552734,99.22000122070312,99.81999969482422,2947600,98.75526428222656
11/24/2017,102.08999633789062,102.55000305175781,101.37999725341797,101.66000366210938,913500,100.57563781738281
11/22/2017,102.41000366210938,102.81999969482422,101.54000091552734,101.58999633789062,2654800,100.50638580322266
11/21/2017,102.30000305175781,102.62000274658203,101.33999633789062,101.66000366210938,4058400,100.57563781738281
11/20/2017,101.37999725341797,102,100.69999694824219,101.44000244140625,1659100,100.35798645019531
11/17/2017,101.76000213623047,102.20999908447266,101.11000061035156,101.63999938964844,2596800,100.55585479736328
11/16/2017,101.29000091552734,102.16000366210938,100.80999755859375,101.43000030517578,2027500,100.34809875488281
11/15/2017,101.18000030517578,102.33000183105469,100.08000183105469,101.36000061035156,3357700,100.2788314819336
11/14/2017,103.8499984741211,104.05999755859375,102.36000061035156,102.47000122070312,2428400,101.37699890136719
11/13/2017,104.19999694824219,105,103.73999786376953,104.45999908447266,1822900,103.34577178955078
11/10/2017,104.52999877929688,105.12000274658203,103.20999908447266,104.58000183105469,3383200,103.4645004272461
11/9/2017,103.83000183105469,105.44000244140625,103.55999755859375,104.77999877929688,3053100,103.662353515625
11/8/2017,105.51000213623047,105.79000091552734,103.80000305175781,104.33000183105469,3426200,103.2171630859375
11/7/2017,107.3499984741211,107.94999694824219,105.55000305175781,106.08999633789062,4021300,104.95838165283203
11/6/2017,105.1500015258789,107.19000244140625,105.05999755859375,106.95999908447266,4700200,105.81909942626953
11/3/2017,103.80000305175781,105.06999969482422,103.30999755859375,104.5,4080200,103.38534545898438
11/2/2017,101.37000274658203,102.98999786376953,101.37000274658203,102.94999694824219,2970900,101.85187530517578
11/1/2017,100.79000091552734,102.47000122070312,96.70999908447266,102.29000091552734,3953400,101.19891357421875
10/31/2017,99.25,100.41000366210938,99.05999755859375,99.87000274658203,3272500,98.80473327636719
10/30/2017,98.66000366210938,99.69000244140625,98.27999877929688,99.52999877929688,3505400,98.4683609008789
10/27/2017,96.20999908447266,98.55999755859375,95.83999633789062,98.47000122070312,2911200,97.419677734375
10/26/2017,96.44999694824219,97.19000244140625,95.73999786376953,96.91999816894531,1980200,95.88619232177734
10/25/2017,96.31999969482422,96.87000274658203,95.66999816894531,96.1500015258789,1959000,95.12440490722656
10/24/2017,97.69999694824219,97.97000122070312,96.2300033569336,96.4800033569336,2190400,95.4509048461914
10/23/2017,97.06999969482422,97.48999786376953,96.66999816894531,96.97000122070312,2395800,95.93567657470703
10/20/2017,95.77999877929688,97.04000091552734,95.41999816894531,96.83999633789062,2194500,95.80705261230469
10/19/2017,95.69000244140625,96.69000244140625,95.36000061035156,95.76000213623047,1875100,94.73856353759766
10/18/2017,97.54000091552734,98.45999908447266,96.56999969482422,96.66000366210938,2040400,95.62896728515625
10/17/2017,97.25,97.7699966430664,96.55999755859375,97.44999694824219,1695300,96.41053771972656
10/16/2017,97.12999725341797,97.4800033569336,96.73999786376953,97.20999908447266,2074900,96.17310333251953
10/13/2017,97.5,97.62999725341797,96.30000305175781,96.62000274658203,1953600,95.4236831665039
10/12/2017,96.08000183105469,96.88999938964844,95.72000122070312,96.6500015258789,2173700,95.45331573486328
10/11/2017,96.7699966430664,97.12000274658203,96.04000091552734,96.93000030517578,2156500,95.72985076904297
10/10/2017,97.0999984741211,97.83000183105469,96.69999694824219,96.77999877929688,2200900,95.58170318603516
10/9/2017,96.52999877929688,97.0199966430664,96.11000061035156,96.5,1880200,95.30517578125
10/6/2017,95.79000091552734,96.33999633789062,95.45999908447266,96.19000244140625,1587300,94.99901580810547
10/5/2017,96.5,97.06999969482422,96.1500015258789,96.55000305175781,2097600,95.35454559326172
10/4/2017,96.6500015258789,96.9800033569336,95.9800033569336,96.33000183105469,1508000,95.13728332519531
10/3/2017,96.9800033569336,97.70999908447266,96.4800033569336,96.5,2134500,95.30517578125
10/2/2017,95.5199966430664,97.18000030517578,94.87000274658203,97.18000030517578,2115200,95.97675323486328
9/29/2017,96.7300033569336,97.44999694824219,96.05000305175781,96.73999786376953,2010900,95.54220581054688
9/28/2017,97.44999694824219,98.37000274658203,96.80999755859375,96.81999969482422,2983000,95.62120819091797
9/27/2017,96.9000015258789,97.51000213623047,96.27999877929688,97.31999969482422,2123000,96.11502075195312
9/26/2017,95.98999786376953,97.5,95.47000122070312,96.87000274658203,2951100,95.67059326171875
9/25/2017,95,96.80000305175781,94.73999786376953,96.29000091552734,3143400,95.09777069091797
9/22/2017,93.7699966430664,94.6500015258789,93.44999694824219,94.55000305175781,2290400,93.37931060791016
9/21/2017,93.66000366210938,94.44000244140625,93.13999938964844,93.88999938964844,2678700,92.72749328613281
9/20/2017,93.58000183105469,94.27999877929688,92.81999969482422,94.18000030517578,3774300,93.0138931274414
9/19/2017,93.08000183105469,93.63999938964844,92.70999908447266,93.12999725341797,2074600,91.9769058227539
9/18/2017,92.7699966430664,93.37999725341797,92.37999725341797,93.05000305175781,2388300,91.89788818359375
9/15/2017,92.43000030517578,93.29000091552734,91.86000061035156,93.22000122070312,4057800,92.06578063964844
9/14/2017,91.5,92.94999694824219,91.16999816894531,91.77999877929688,3428400,90.64361572265625
9/13/2017,89.31999969482422,91.11000061035156,89.06999969482422,91.0999984741211,3158300,89.97203063964844
9/12/2017,87.8499984741211,88.75,87.43000030517578,88.47000122070312,2922900,87.37460327148438
9/11/2017,87.11000061035156,87.98999786376953,86.4800033569336,87.93000030517578,2865300,86.84127807617188
9/8/2017,87.87000274658203,88.06999969482422,86.08000183105469,86.77999877929688,2687200,85.70551300048828
9/7/2017,87.75,88.73999786376953,87.4000015258789,88.5999984741211,2788600,87.50298309326172
9/6/2017,86.72000122070312,87.97000122070312,86.45999908447266,87.8499984741211,2600300,86.76227569580078
9/5/2017,85.91999816894531,86.68000030517578,85.26000213623047,85.87000274658203,2655100,84.80679321289062
9/1/2017,85,85.86000061035156,84.58999633789062,85.6500015258789,2358600,84.58952331542969
8/31/2017,84,85.18000030517578,83.61000061035156,84.98999786376953,4803900,83.93768310546875
8/30/2017,82.91999816894531,83.9800033569336,82.31999969482422,83.66999816894531,2245700,82.634033203125
8/29/2017,82.62000274658203,83.23999786376953,81.98999786376953,83.1500015258789,2321300,82.1204605102539
8/28/2017,84.3499984741211,84.41999816894531,82.25,83.4000015258789,2377500,82.36737823486328
8/25/2017,85.01000213623047,85.22000122070312,84.45999908447266,84.51000213623047,2211300,83.463623046875
8/24/2017,84.80000305175781,85.13999938964844,84.33000183105469,84.62000274658203,2007800,83.572265625
8/23/2017,84.16000366210938,85.72000122070312,83.95999908447266,85.11000061035156,2322700,84.05619812011719
8/22/2017,83.91000366210938,84.52999877929688,83.8499984741211,84.23999786376953,1946700,83.19696807861328
8/21/2017,83.80999755859375,84.31999969482422,83.41000366210938,83.69000244140625,2515500,82.65377807617188
8/18/2017,83.3499984741211,84.54000091552734,83.29000091552734,84.08999633789062,2751700,83.04882049560547
8/17/2017,84.77999877929688,85.02999877929688,83.37000274658203,83.37999725341797,3438100,82.34761810302734
8/16/2017,87.2300033569336,87.2300033569336,84.83999633789062,84.9800033569336,3478000,83.92781066894531
8/15/2017,87.75,87.91000366210938,86.25,87.0199966430664,4457900,85.94254302978516
8/14/2017,88.93000030517578,89.04000091552734,87.7300033569336,87.98999786376953,2478800,86.90052795410156
8/11/2017,89.1500015258789,89.55000305175781,87.94000244140625,88.52999877929688,2874200,87.43384552001953
8/10/2017,90.62999725341797,90.95999908447266,88.88999938964844,89.12000274658203,3377400,88.01655578613281
8/9/2017,91.5199966430664,92.3499984741211,90.2699966430664,90.3499984741211,3289100,89.2313232421875
8/8/2017,89.80999755859375,92.3499984741211,89.70999908447266,91.1500015258789,3829700,90.02141571044922
8/7/2017,89.88999938964844,90.2300033569336,88.8499984741211,89.66999816894531,3886500,88.55974578857422
8/4/2017,88.81999969482422,91.23999786376953,88.55999755859375,90.44999694824219,3792200,89.330078125
8/3/2017,92.38999938964844,92.5,87.76000213623047,88.9000015258789,6296700,87.79927062988281
8/2/2017,92.62000274658203,93.27999877929688,89.8499984741211,92.31999969482422,5358400,91.17693328857422
8/1/2017,94.91000366210938,95.58000183105469,94.05000305175781,94.45999908447266,3802000,93.2904281616211
7/31/2017,95.31999969482422,95.9000015258789,94.7699966430664,95.13999938964844,2988600,93.9620132446289
7/28/2017,96.01000213623047,96.9000015258789,95.02999877929688,95.41999816894531,2977100,94.23853302001953
7/27/2017,94.62000274658203,95.98999786376953,94.30000305175781,95.9800033569336,2615700,94.79161071777344
7/26/2017,95.66000366210938,96.0999984741211,94.6500015258789,94.75,2862100,93.57685089111328
7/25/2017,94.77999877929688,95.6500015258789,94.44000244140625,94.87000274658203,2811200,93.69535827636719
7/24/2017,93.0199966430664,94.68000030517578,92.9000015258789,93.30999755859375,2588900,92.1546630859375
7/21/2017,93.38999938964844,93.80000305175781,92.37999725341797,92.91000366210938,2665700,91.75962829589844
7/20/2017,95,95.73999786376953,93.56999969482422,93.66000366210938,4078200,92.50035095214844
7/19/2017,91.55999755859375,94.55000305175781,91.55999755859375,94.30999755859375,3937500,93.14228057861328
7/18/2017,92.25,92.44999694824219,91.25,91.69999694824219,2198600,90.5645980834961
7/17/2017,91.30999755859375,92.12999725341797,91.30999755859375,91.9000015258789,4129100,90.76213836669922
7/14/2017,91.9800033569336,92.36000061035156,91.58999633789062,91.87000274658203,1773400,90.73249816894531
7/13/2017,90.37000274658203,91.91999816894531,90.37000274658203,91.80999755859375,2472100,90.67322540283203
7/12/2017,91.45999908447266,92.30000305175781,90.41000366210938,90.56999969482422,3166700,89.28317260742188
7/11/2017,89.62000274658203,90.98999786376953,88.91999816894531,90.62999725341797,2517000,89.3423080444336
7/10/2017,88.12999725341797,89.77999877929688,88,89.62000274658203,2064600,88.34664916992188
7/7/2017,88.06999969482422,88.5999984741211,87.04000091552734,88.44000244140625,3810300,87.18344116210938
7/6/2017,90.52999877929688,90.83999633789062,88.41000366210938,88.62999725341797,3290600,87.3707275390625
7/5/2017,91.81999969482422,92.19000244140625,89.95999908447266,90.30000305175781,2720200,89.01700592041016
7/3/2017,91,93.16000366210938,90.5199966430664,92.37000274658203,2400000,91.0575942993164
6/30/2017,90.33999633789062,91.22000122070312,89.25,90.5199966430664,4164100,89.23387145996094
6/29/2017,89.47000122070312,90.91000366210938,89.30000305175781,90,4079000,88.72126007080078
6/28/2017,88.18000030517578,89.54000091552734,87.48999786376953,89.0199966430664,4508200,87.75518798828125
6/27/2017,88.19000244140625,88.83000183105469,87.68000030517578,88,3909200,86.74967956542969
6/26/2017,88.04000091552734,88.19000244140625,86.81999969482422,87.38999938964844,2547700,86.14835357666016
6/23/2017,87.61000061035156,88.2300033569336,87.20999908447266,87.79000091552734,3733900,86.54267120361328
6/22/2017,87.33999633789062,89.02999877929688,86.62999725341797,87.69000244140625,3356600,86.44408416748047
6/21/2017,88.0999984741211,89.16999816894531,86.63999938964844,87.12000274658203,4613500,85.88218688964844
6/20/2017,86.79000091552734,88.29000091552734,85.87999725341797,87.8499984741211,3772100,86.601806640625
6/19/2017,88.37000274658203,89.01000213623047,87.95999908447266,88.06999969482422,2495400,86.81867980957031
6/16/2017,87.56999969482422,88.58999633789062,87.06999969482422,88.5199966430664,4767000,87.26228332519531
6/15/2017,88.86000061035156,89.1500015258789,86.56999969482422,87.04000091552734,4362000,85.80332946777344
6/14/2017,90.02999877929688,90.05000305175781,87.83999633789062,88.93000030517578,4054900,87.6664810180664
6/13/2017,90.05000305175781,90.69999694824219,89.51000213623047,90.55999755859375,2573100,89.2733154296875
6/12/2017,91.26000213623047,91.9800033569336,89.51000213623047,89.87999725341797,3812500,88.60295867919922
6/9/2017,88.33000183105469,90.80999755859375,88.04000091552734,90.08000183105469,4507800,88.80012512207031
6/8/2017,88.1500015258789,88.80000305175781,87.62000274658203,88.11000061035156,3489900,86.85811614990234
6/7/2017,90.22000122070312,90.94000244140625,87.41000366210938,88.1500015258789,4531400,86.89755249023438
6/6/2017,89.0999984741211,91.05999755859375,88.7699966430664,90.83000183105469,3219500,89.53948211669922
6/5/2017,89.12000274658203,89.62999725341797,88.5199966430664,89.19999694824219,2373000,87.93262481689453
6/2/2017,90.04000091552734,90.58000183105469,88.94000244140625,89.68000030517578,2680200,88.40581512451172
6/1/2017,90.63999938964844,91.37999725341797,89.7300033569336,90.4000015258789,2829600,89.11558532714844
5/31/2017,88.98999786376953,90.61000061035156,88.36000061035156,90.30999755859375,3938800,89.02687072753906
5/30/2017,90.47000122070312,90.79000091552734,89.43000030517578,89.62000274658203,3163100,88.34664916992188
5/26/2017,91.29000091552734,91.41000366210938,90.12000274658203,91.22000122070312,2001500,89.92393493652344
5/25/2017,92.27999877929688,93.62000274658203,90.44000244140625,91.0199966430664,2768700,89.72676849365234
5/24/2017,92.37000274658203,93.38999938964844,92.30999755859375,92.66999816894531,2886800,91.35333251953125
5/23/2017,93.12000274658203,93.30000305175781,91.97000122070312,92.52999877929688,2255400,91.21531677246094
5/22/2017,94.12999725341797,94.76000213623047,92.79000091552734,93.11000061035156,2004600,91.7870864868164
5/19/2017,92.37999725341797,94.38999938964844,92.06999969482422,93.80999755859375,3711900,92.47713470458984
5/18/2017,92.2300033569336,93.0199966430664,91.66999816894531,91.69000244140625,3795800,90.38726043701172
5/17/2017,93.83000183105469,94.30000305175781,92.83000183105469,92.94999694824219,2406900,91.62934875488281
5/16/2017,94.7300033569336,95.05999755859375,93.5199966430664,93.83000183105469,2682700,92.49685668945312
5/15/2017,96.31999969482422,96.6500015258789,94.12000274658203,94.7300033569336,6294000,93.38406372070312
5/12/2017,94.12000274658203,95.01000213623047,93.80000305175781,94.69999694824219,3415700,93.35448455810547
5/11/2017,94.81999969482422,94.91999816894531,93.9800033569336,94.27999877929688,2580800,92.9404525756836
5/10/2017,93.01000213623047,95.7699966430664,92.56999969482422,94.54000091552734,5239200,93.1967544555664
5/9/2017,92.36000061035156,92.44000244140625,90.5999984741211,91.63999938964844,3591100,90.33795928955078
5/8/2017,90.38999938964844,92.13999938964844,90.16999816894531,91.69000244140625,3718300,90.38726043701172
5/5/2017,89.02999877929688,91.05999755859375,88.87000274658203,90.87999725341797,4696400,89.58875274658203
5/4/2017,91.04000091552734,91.23999786376953,88.19999694824219,88.5999984741211,5457900,87.34115600585938
5/3/2017,91.52999877929688,92.75,91.08999633789062,91.76000213623047,3512200,90.45625305175781
5/2/2017,92.23999786376953,92.44000244140625,91.05000305175781,91.87000274658203,3350700,90.564697265625
5/1/2017,92.52999877929688,92.70999908447266,91.75,92.02999877929688,2680100,90.72241973876953
4/28/2017,93.97000122070312,93.97000122070312,92.44000244140625,92.5,1621700,91.18575286865234
4/27/2017,93.56999969482422,93.69999694824219,91.16000366210938,93,3876300,91.67864227294922
4/26/2017,94.41999816894531,96.48999786376953,94.20999908447266,94.30999755859375,2132000,92.97002410888672
4/25/2017,93.80000305175781,95.43000030517578,93.47000122070312,95.2699966430664,2273900,93.9163818359375
4/24/2017,94.45999908447266,94.45999908447266,93.31999969482422,93.73999786376953,2182200,92.40811920166016
4/21/2017,93,94.25,92.88999938964844,93.58000183105469,2409300,92.25040435791016
4/20/2017,93.7699966430664,94.0999984741211,93.19000244140625,93.30000305175781,2737300,91.97438049316406
4/19/2017,94.93000030517578,95.41999816894531,92.93000030517578,93.29000091552734,3109100,91.96451568603516
4/18/2017,95.11000061035156,95.97000122070312,94.30000305175781,94.83000183105469,2005700,93.48263549804688
4/17/2017,95.66000366210938,96.12999725341797,95.19999694824219,95.73999786376953,2288800,94.37971496582031
4/13/2017,97.25,97.72000122070312,95.33000183105469,95.63999938964844,3235100,94.28113555908203
4/12/2017,97.81999969482422,98.87999725341797,97.18000030517578,97.48999786376953,2295100,96.1048355102539
4/11/2017,98.08999633789062,98.61000061035156,96.91000366210938,97.87999725341797,1907900,96.48930358886719
4/10/2017,98.16999816894531,99.43000030517578,98.05999755859375,98.56999969482422,2902600,97.00438690185547
4/7/2017,98.2300033569336,98.4800033569336,97.04000091552734,97.36000061035156,2866600,95.81359100341797
4/6/2017,97.97000122070312,98.80999755859375,97.55999755859375,98.05000305175781,1977900,96.49263763427734
4/5/2017,99.4000015258789,100.52999877929688,97.22000122070312,97.58000183105469,3829100,96.03011322021484
4/4/2017,97.37000274658203,98.30999755859375,96.01000213623047,98.25,2232100,96.6894760131836
4/3/2017,97.5,97.80999755859375,95.9800033569336,96.95999908447266,2282000,95.4199447631836
3/31/2017,97.18000030517578,98.5,96.66000366210938,97.55000305175781,4001000,96.00057983398438
3/30/2017,98.19000244140625,100.16000366210938,97.16999816894531,97.16999816894531,7514700,95.6266098022461
3/29/2017,95.18000030517578,97.55999755859375,94.56999969482422,97,3480900,95.45932006835938
3/28/2017,93.5,95.63999938964844,93.44999694824219,95.29000091552734,3341000,93.77647399902344
3/27/2017,93.3499984741211,93.98999786376953,93.02999877929688,93.37999725341797,2756900,91.89681243896484
3/24/2017,94.94000244140625,95.25,94.36000061035156,94.86000061035156,2858400,93.35331726074219
3/23/2017,94.4800033569336,95.44000244140625,93.91999816894531,94.80999755859375,2350500,93.30410766601562
3/22/2017,94.33999633789062,95.33000183105469,93.93000030517578,94.6500015258789,2040700,93.14664459228516
3/21/2017,96.48999786376953,96.58999633789062,94.26000213623047,94.52999877929688,2840700,93.02854919433594
3/20/2017,95.75,96.55000305175781,95.19999694824219,96.22000122070312,2208400,94.69171142578125
3/17/2017,96.54000091552734,96.97000122070312,95.6500015258789,96.43000030517578,6978600,94.89836883544922
3/16/2017,97.16000366210938,97.25,95.73999786376953,95.83000183105469,3182400,94.30789947509766
3/15/2017,95.54000091552734,97.38999938964844,94.68000030517578,97.05999755859375,4184400,95.51835632324219
3/14/2017,93.93000030517578,94.98999786376953,92.91000366210938,94.58999633789062,5091800,93.08758544921875
3/13/2017,94.48999786376953,95.3499984741211,93.5199966430664,94.94999694824219,4695400,93.4418716430664
3/10/2017,96.5,96.5,94.01000213623047,94.79000091552734,3796500,93.28441619873047
3/9/2017,93.7699966430664,96.0199966430664,93.05999755859375,95.69999694824219,4991400,94.1799545288086
3/8/2017,98.80999755859375,99.36000061035156,94.48999786376953,94.83000183105469,4829600,93.32378387451172
3/7/2017,100.4000015258789,100.54000091552734,99.4000015258789,99.52999877929688,3381800,97.94913482666016
3/6/2017,98.62000274658203,100.37999725341797,97.80000305175781,100.06999969482422,3106100,98.48056030273438
3/3/2017,98.5,99.30999755859375,98.12000274658203,98.56999969482422,2075400,97.00438690185547
3/2/2017,99.18000030517578,99.70999908447266,98.23999786376953,98.47000122070312,3048900,96.90596771240234
3/1/2017,98.25,100.41999816894531,98.01000213623047,100.05000305175781,3775900,98.46087646484375
2/28/2017,99.5,99.55000305175781,95.29000091552734,96.98999786376953,6369300,95.44947052001953
2/27/2017,96.77999877929688,98.2300033569336,96.30000305175781,97.91000366210938,5156900,96.3548812866211
2/24/2017,96.5199966430664,97.5,95.6500015258789,96.30000305175781,3590300,94.77043151855469
2/23/2017,99.19000244140625,99.19000244140625,96.55000305175781,97.56999969482422,3211800,96.020263671875
2/22/2017,98.76000213623047,99.19999694824219,97.45999908447266,97.52999877929688,2596500,95.98089599609375
2/21/2017,100.41000366210938,100.8499984741211,99.43000030517578,99.47000122070312,2737200,97.89008331298828
2/17/2017,99.91000366210938,100.0199966430664,98.43000030517578,99.02999877929688,3023200,97.45707702636719
2/16/2017,101.05999755859375,101.4800033569336,99.83999633789062,100.16999816894531,3154100,98.5789566040039
2/15/2017,100.91000366210938,101.47000122070312,100.3499984741211,100.75,2094000,99.14974975585938
2/14/2017,100.33000183105469,101.4800033569336,99.0199966430664,101.2300033569336,3861200,99.62213134765625
2/13/2017,100.91000366210938,101.37999725341797,100.13999938964844,100.3499984741211,1944900,98.75609588623047
2/10/2017,101.2300033569336,102.02999877929688,100.56999969482422,101.44000244140625,3089000,99.82879638671875
2/9/2017,98.13999938964844,100.29000091552734,98.13999938964844,99.80999755859375,2927000,98.22469329833984
2/8/2017,96.5999984741211,98.48999786376953,95.27999877929688,98.13999938964844,3445400,96.58120727539062
2/7/2017,99.25,99.5,95.2699966430664,97.19000244140625,5158000,95.64629364013672
2/6/2017,101,101.05000305175781,99.43000030517578,99.69999694824219,1802400,98.11641693115234
2/3/2017,99.68000030517578,102.18000030517578,99.20999908447266,100.94000244140625,3520900,99.33673858642578
2/2/2017,101.13999938964844,101.4800033569336,98.94000244140625,99.70999908447266,5064400,98.12626647949219
2/1/2017,102.19000244140625,102.62999725341797,100.05000305175781,101,3028500,99.39579010009766
1/31/2017,101.3499984741211,101.62000274658203,100.0999984741211,101.58000183105469,2447500,99.96656036376953
1/30/2017,102.19000244140625,102.76000213623047,99.56999969482422,101.19999694824219,2975600,99.59260559082031
1/27/2017,104.16000366210938,104.16000366210938,102.77999877929688,102.9000015258789,2343600,101.2656021118164
1/26/2017,104.0999984741211,105.26000213623047,103.9000015258789,104.38999938964844,2772600,102.73193359375
1/25/2017,103.62999725341797,104.38999938964844,103.23999786376953,103.9000015258789,2798100,102.24972534179688
1/24/2017,104.48999786376953,104.62000274658203,102.91000366210938,103.68000030517578,2680500,102.03321838378906
1/23/2017,104.72000122070312,105.0999984741211,103.33999633789062,103.45999908447266,3045500,101.81672668457031
1/20/2017,106.2300033569336,106.79000091552734,105.30000305175781,105.47000122070312,2488100,103.79479217529297
1/19/2017,105.5,106.20999908447266,104.45999908447266,105.19000244140625,2425800,103.51923370361328
1/18/2017,105.33999633789062,105.70999908447266,104.7300033569336,105.4000015258789,2527500,103.72589874267578
1/17/2017,105.94999694824219,106.76000213623047,105.44999694824219,105.4800033569336,3879100,103.80462646484375
1/13/2017,104.83999633789062,106.08000183105469,104.2699966430664,105.38999938964844,2580500,103.71604919433594
1/12/2017,105.51000213623047,106.51000213623047,104.83999633789062,105.37000274658203,4671700,103.69638061523438
1/11/2017,103.55999755859375,105.04000091552734,102.7300033569336,104.91999816894531,3542900,103.08867645263672
1/10/2017,103.2300033569336,104.4000015258789,102.87000274658203,103.4000015258789,2913800,101.59522247314453
1/9/2017,104.31999969482422,104.58000183105469,102.81999969482422,103.0199966430664,3380300,101.22183990478516
1/6/2017,104.61000061035156,105.70999908447266,103.70999908447266,105.20999908447266,2418300,103.37361907958984
1/5/2017,103.62999725341797,104.8499984741211,103.41999816894531,104.18000030517578,3084800,102.36160278320312
1/4/2017,104.25,104.47000122070312,102.97000122070312,103.62000274658203,2417900,101.8113784790039
1/3/2017,102.62999725341797,104.62999725341797,101.83000183105469,103.54000091552734,4151200,101.73277282714844
12/30/2016,101.1500015258789,102.18000030517578,100.7300033569336,101.0999984741211,2178200,99.3353500366211
12/29/2016,101.5999984741211,101.94999694824219,100.54000091552734,101.27999877929688,1516700,99.51221466064453
12/28/2016,102.48999786376953,102.83000183105469,101.3499984741211,101.6500015258789,1896100,99.87576293945312
12/27/2016,102.81999969482422,103.12000274658203,102.31999969482422,102.54000091552734,1410800,100.75020599365234
12/23/2016,102.69999694824219,103.04000091552734,101.62000274658203,102.02999877929688,1706200,100.24913024902344
12/22/2016,102.66999816894531,103.33000183105469,101.87000274658203,103.12999725341797,2722400,101.32991790771484
12/21/2016,103.75,103.86000061035156,102.33000183105469,102.55000305175781,2364900,100.76004791259766
12/20/2016,104.19999694824219,104.33999633789062,102.70999908447266,103.16000366210938,2383100,101.35940551757812
12/19/2016,104.2699966430664,104.4000015258789,103.12999725341797,103.4800033569336,2238900,101.6738052368164
12/16/2016,104.08999633789062,104.58999633789062,102.79000091552734,104,8692900,102.18473052978516
12/15/2016,103.02999877929688,105.05000305175781,102.54000091552734,103.91999816894531,4646800,102.10614776611328
12/14/2016,106.69000244140625,107.47000122070312,104.08000183105469,104.20999908447266,4010300,102.39108276367188
12/13/2016,107,109.12999725341797,105.80000305175781,108.01000213623047,3912600,106.12474822998047
12/12/2016,109.0999984741211,109.37000274658203,105.19000244140625,105.83000183105469,5758500,103.98279571533203
12/9/2016,105.58999633789062,106.98999786376953,105.3499984741211,106.44999694824219,4049600,104.59197235107422
12/8/2016,104.02999877929688,105.25,102.36000061035156,104.93000030517578,6189100,103.0985107421875
12/7/2016,103.91999816894531,104.97000122070312,102.69000244140625,103.52999877929688,3777700,101.72293090820312
12/6/2016,103.5199966430664,105.30000305175781,102.55999755859375,103.97000122070312,3539700,102.15525817871094
12/5/2016,104.87999725341797,106.80999755859375,104.31999969482422,104.45999908447266,5883900,102.63670349121094
12/2/2016,104.80999755859375,105.47000122070312,103.38999938964844,103.73999786376953,4078300,101.92927551269531
12/1/2016,105.70999908447266,107.47000122070312,103.8499984741211,104.75,6505300,102.9216537475586
11/30/2016,97.30999755859375,103.06999969482422,97.08999633789062,102.5199966430664,10121000,100.7305679321289
11/29/2016,91.5999984741211,93.37999725341797,90,92.44000244140625,4010400,90.8265151977539
11/28/2016,96.63999938964844,96.83999633789062,93.2699966430664,93.47000122070312,3031200,91.8385238647461
11/25/2016,96.38999938964844,96.80999755859375,95.19000244140625,95.9800033569336,1518300,94.30473327636719
11/23/2016,94.79000091552734,97.69999694824219,94.63999938964844,97,2675500,95.30693054199219
11/22/2016,95.79000091552734,96.19999694824219,93.41999816894531,95.2699966430664,3867800,93.60711669921875
11/21/2016,95,97,94.86000061035156,95.66999816894531,4642400,94.00013732910156
11/18/2016,92.75,94.27999877929688,92.37999725341797,93.1500015258789,2755400,91.52412414550781
11/17/2016,96.0999984741211,96.58000183105469,92.04000091552734,92.33999633789062,5877700,90.72825622558594
11/16/2016,94.51000213623047,96.0199966430664,94.05000305175781,95.22000122070312,4101100,93.55799102783203
11/15/2016,94.02999877929688,94.98999786376953,93.05000305175781,94.56999969482422,8288400,92.9193344116211
11/14/2016,91.19000244140625,92.80000305175781,90.08999633789062,92.68000030517578,2458300,91.06231689453125
11/11/2016,92.06999969482422,92.54000091552734,90.12000274658203,91.41000366210938,2340300,89.81449890136719
11/10/2016,92.63999938964844,93.69999694824219,92.05999755859375,92.62999725341797,2983000,91.0132064819336
11/9/2016,93.3499984741211,94.66999816894531,92.5199966430664,93.43000030517578,4685900,91.79922485351562
11/8/2016,92.9000015258789,94.0999984741211,92.56999969482422,93.36000061035156,2382200,91.73045349121094
11/7/2016,93.5999984741211,93.5999984741211,92.20999908447266,93.43000030517578,2988200,91.79922485351562
11/4/2016,94.87000274658203,96,91.51000213623047,91.80000305175781,6775100,90.19768524169922
11/3/2016,90.87999725341797,92.87999725341797,90.58999633789062,92.08000183105469,4157900,90.47280883789062
11/2/2016,89.91000366210938,91.79000091552734,88.94000244140625,90.94000244140625,3302600,89.3526840209961
11/1/2016,91.31999969482422,92.22000122070312,89.9000015258789,91.16000366210938,2496000,89.56886291503906
10/31/2016,90.66000366210938,91.2300033569336,90.18000030517578,90.41999816894531,2406900,88.84176635742188
10/28/2016,91.6500015258789,94.08999633789062,90.68000030517578,90.80000305175781,3269800,89.21514892578125
10/27/2016,92.51000213623047,92.88999938964844,91.30000305175781,91.73999786376953,3581300,90.13873291015625
10/26/2016,91.8499984741211,93.0999984741211,90.37999725341797,92.13999938964844,3286400,90.53174591064453
10/25/2016,93.4800033569336,94.19000244140625,92.56999969482422,92.66999816894531,1429100,91.05248260498047
10/24/2016,93.9800033569336,94.66999816894531,92.27999877929688,93.62000274658203,2569000,91.98590850830078
10/21/2016,94.19000244140625,95.0199966430664,93.63999938964844,93.87999725341797,2729600,92.24137115478516
10/20/2016,93.97000122070312,95.5,93.7699966430664,94.91000366210938,2472200,93.2533950805664
10/19/2016,94.26000213623047,96.18000030517578,94,95.05999755859375,3163600,93.4007797241211
10/18/2016,94.95999908447266,95.16000366210938,92.94000244140625,93.12999725341797,2729500,91.50446319580078
10/17/2016,94.45999908447266,94.94999694824219,93.05000305175781,93.77999877929688,2100100,92.14311981201172
10/14/2016,96.2699966430664,96.2699966430664,93.91000366210938,94.4800033569336,2526800,92.8309097290039
10/13/2016,95.43000030517578,95.93000030517578,93.98999786376953,95.5,2252400,93.83309936523438
10/12/2016,95.87999725341797,96.76000213623047,95.1500015258789,96.30000305175781,2415800,94.45455932617188
10/11/2016,96.75,97.06999969482422,95.72000122070312,96.05000305175781,2099900,94.20935821533203
10/10/2016,97.27999877929688,98.0999984741211,97.12999725341797,97.29000091552734,1951300,95.42559051513672
10/7/2016,96.87999725341797,97.33000183105469,96.05000305175781,96.44000244140625,1742900,94.59188842773438
10/6/2016,97.55000305175781,98.05999755859375,96.38999938964844,97.13999938964844,1789700,95.2784652709961
10/5/2016,96.37000274658203,98.31999969482422,96.08999633789062,97.37999725341797,3284500,95.51386260986328
10/4/2016,96.31999969482422,96.37000274658203,94.51000213623047,95.13999938964844,1724700,93.31678771972656
10/3/2016,96.2699966430664,96.70999908447266,95.05999755859375,96.11000061035156,2318600,94.26820373535156
9/30/2016,95.55000305175781,97.19999694824219,94.69000244140625,96.70999908447266,4006500,94.85670471191406
9/29/2016,94.27999877929688,95.94000244140625,93.13999938964844,95.05000305175781,4486500,93.228515625
9/28/2016,89.45999908447266,94.58000183105469,88.56999969482422,93.95999908447266,4533800,92.15940856933594
9/27/2016,88.1500015258789,89,87.18000030517578,88.55999755859375,2939000,86.86288452148438
9/26/2016,90.22000122070312,90.62999725341797,89.01000213623047,89.26000213623047,2131500,87.54947662353516
9/23/2016,92.25,92.36000061035156,89.4000015258789,89.75,3679800,88.03006744384766
9/22/2016,94.61000061035156,95,92.43000030517578,92.61000061035156,3047100,90.83528137207031
9/21/2016,91.55999755859375,93.79000091552734,91.0999984741211,93.5199966430664,3188900,91.72782897949219
9/20/2016,90.16000366210938,91.8499984741211,90.04000091552734,90.4000015258789,3049400,88.66761016845703
9/19/2016,91.66000366210938,91.87000274658203,90.0199966430664,90.05000305175781,3738100,88.3243408203125
9/16/2016,89.54000091552734,91.45999908447266,89.2699966430664,90.97000122070312,4559700,89.22669982910156
9/15/2016,88.8499984741211,92.38999938964844,88.48999786376953,90.94999694824219,3931800,89.20707702636719
9/14/2016,89.87999725341797,90.81999969482422,88.16999816894531,88.44999694824219,3673700,86.75498962402344
9/13/2016,91.61000061035156,92.12999725341797,89.52999877929688,90.4000015258789,3985900,88.66761016845703
9/12/2016,92.05000305175781,93.52999877929688,91.3499984741211,92.9800033569336,2498800,91.19818878173828
9/9/2016,94.36000061035156,94.87000274658203,92.62000274658203,92.6500015258789,3013300,90.87449645996094
9/8/2016,95.18000030517578,95.93000030517578,94.16000366210938,95.43000030517578,3691200,93.60123443603516
9/7/2016,94.77999877929688,95.16000366210938,94.04000091552734,94.31999969482422,4271500,92.51251220703125
9/6/2016,90.25,95.19999694824219,90.05999755859375,94.83000183105469,7421600,93.0127182006836
9/2/2016,89.2699966430664,89.5,88.69000244140625,88.91000366210938,1938400,87.20619201660156
9/1/2016,88.30999755859375,88.63999938964844,87.44000244140625,88.55000305175781,2420700,86.85307312011719
8/31/2016,89.76000213623047,89.9000015258789,88.0199966430664,88.48999786376953,2709100,86.79421997070312
8/30/2016,91.2699966430664,91.69000244140625,89.63999938964844,90.06999969482422,1618400,88.34396362304688
8/29/2016,89.9800033569336,91.33000183105469,89.61000061035156,91.13999938964844,2204000,89.39342498779297
8/26/2016,90.7300033569336,91.51000213623047,89.91999816894531,90.18000030517578,1641100,88.45184326171875
8/25/2016,90.69999694824219,90.8499984741211,90,90.25,1929900,88.52049255371094
8/24/2016,90.7699966430664,91.4000015258789,90.55999755859375,90.7300033569336,2329200,88.99130249023438
8/23/2016,90.7300033569336,91.8499984741211,90.70999908447266,91.20999908447266,2986400,89.46208953857422
8/22/2016,90.83000183105469,91.83999633789062,90.2699966430664,91.16999816894531,2276100,89.42286682128906
8/19/2016,91.16999816894531,91.94000244140625,90.66000366210938,91.76000213623047,2338600,90.00155639648438
8/18/2016,90.81999969482422,92.0999984741211,90.29000091552734,91.7300033569336,4122200,89.97212982177734
8/17/2016,89.80999755859375,90.66000366210938,89.30000305175781,90.22000122070312,3160400,88.49107360839844
8/16/2016,90.19000244140625,90.80000305175781,88.83999633789062,90.26000213623047,2463400,88.53031158447266
8/15/2016,91.51000213623047,91.97000122070312,90.54000091552734,90.55000305175781,2794100,88.81475067138672
8/12/2016,90.6500015258789,91.41999816894531,90,91.19999694824219,1912000,89.45227813720703
8/11/2016,90.06999969482422,91.1500015258789,89.08000183105469,90.27999877929688,3437900,88.54991912841797
8/10/2016,90.87000274658203,90.87000274658203,89.19999694824219,89.41999816894531,2664100,87.7063980102539
8/9/2016,91.29000091552734,91.38999938964844,89.9000015258789,90.37999725341797,3064200,88.64801025390625
8/8/2016,90.97000122070312,92,90.47000122070312,90.66000366210938,4506100,88.92263793945312
8/5/2016,87.2300033569336,90.7699966430664,86.75,90.16000366210938,8928300,88.4322280883789
8/4/2016,82.02999877929688,84.30000305175781,81.5999984741211,84.23999786376953,4178700,82.62565612792969
8/3/2016,80,82.41999816894531,79.66999816894531,82.37000274658203,3036500,80.79151153564453
8/2/2016,79.37000274658203,80.36000061035156,78.5199966430664,79.88999938964844,3039100,78.35903930664062
8/1/2016,81.04000091552734,81.12999725341797,78.26000213623047,78.69999694824219,3591800,77.19182586669922
7/29/2016,79,81.88999938964844,78.86000061035156,81.69999694824219,2886900,80.13433837890625
7/28/2016,79.73999786376953,80.70999908447266,79.25,79.9000015258789,2537400,78.36884307861328
7/27/2016,80.76000213623047,81.94999694824219,79.6500015258789,79.77999877929688,3439900,78.25114440917969
7/26/2016,78.47000122070312,80.44999694824219,78.04000091552734,80.44999694824219,2548000,78.9083023071289
7/25/2016,80.37999725341797,80.55999755859375,78.19000244140625,78.75,4280300,77.24088287353516
7/22/2016,82.05000305175781,82.19999694824219,80.19000244140625,80.9800033569336,2620100,79.42816162109375
7/21/2016,82.1500015258789,83.45999908447266,81.19999694824219,81.48999786376953,1825300,79.9283676147461
7/20/2016,81.52999877929688,82.86000061035156,80.91999816894531,82.11000061035156,2156700,80.53648376464844
7/19/2016,82.87000274658203,83.1500015258789,81.86000061035156,82.04000091552734,2173800,80.46783447265625
7/18/2016,83.91999816894531,84.30999755859375,82.73999786376953,83.25,1864800,81.65464782714844
7/15/2016,84.51000213623047,84.9000015258789,83.63999938964844,84.0999984741211,2473800,82.48834228515625
7/14/2016,84.83999633789062,84.93000030517578,83.87999725341797,84.62999725341797,2018100,83.00819396972656
7/13/2016,84.58999633789062,85.06999969482422,82.62000274658203,83.83999633789062,2812000,82.23332977294922
7/12/2016,84.55000305175781,85.95999908447266,84.13999938964844,85.13999938964844,2860700,83.34412384033203
7/11/2016,82.94000244140625,83.88999938964844,82.5999984741211,82.9000015258789,1689200,81.15137481689453
7/8/2016,82.83999633789062,83.06999969482422,81.56999969482422,82.54000091552734,1979500,80.79898071289062
7/7/2016,83.83000183105469,83.86000061035156,81.12000274658203,81.61000061035156,2119600,79.88859558105469
7/6/2016,82.02999877929688,83.11000061035156,81.86000061035156,82.76000213623047,2207300,81.01433563232422
7/5/2016,83.12000274658203,84.02999877929688,81.66999816894531,82.76000213623047,2704800,81.01433563232422
7/1/2016,83.77999877929688,85.7300033569336,83.37000274658203,84.77999877929688,2675400,82.9917221069336
6/30/2016,83.44000244140625,83.95999908447266,82.63999938964844,83.41999816894531,3364000,81.66040802001953
6/29/2016,82.80000305175781,84.01000213623047,82.41000366210938,83.44000244140625,2870300,81.67999267578125
6/28/2016,80.6500015258789,81.7699966430664,79.8499984741211,81.75,3105700,80.025634765625
6/27/2016,80,80.80000305175781,78.11000061035156,78.58999633789062,4234100,76.93228149414062
6/24/2016,81.58000183105469,82.87999725341797,80.80999755859375,81.05999755859375,4942200,79.35018157958984
6/23/2016,84.76000213623047,84.97000122070312,83.97000122070312,84.5,2413200,82.71763610839844
6/22/2016,84.9000015258789,85.08999633789062,83.43000030517578,83.5999984741211,2415600,81.83661651611328
6/21/2016,82.98999786376953,85.22000122070312,82.83000183105469,84.91000366210938,3539800,83.11898040771484
6/20/2016,82.33000183105469,83.38999938964844,81.80999755859375,83.19000244140625,3215000,81.43526458740234
6/17/2016,80.94999694824219,81.55000305175781,80.33999633789062,80.88999938964844,3280800,79.18378448486328
6/16/2016,81.25,81.3499984741211,79.33000183105469,80.18000030517578,3139800,78.48875427246094
6/15/2016,82.7300033569336,83.54000091552734,81.5,82.44000244140625,2150800,80.7010726928711
6/14/2016,81.22000122070312,83.05000305175781,81.06999969482422,82.9800033569336,2335700,81.22969818115234
6/13/2016,80.98999786376953,83.0999984741211,80.51000213623047,81.38999938964844,2283100,79.67322540283203
6/10/2016,83.31999969482422,84.33999633789062,81.33000183105469,81.55999755859375,2983600,79.83964538574219
6/9/2016,84.16999816894531,85.44000244140625,84,84.58000183105469,3588100,82.79595184326172
6/8/2016,86.5999984741211,86.87000274658203,85.13999938964844,85.36000061035156,3796800,83.55949401855469
6/7/2016,81.98999786376953,85.62999725341797,81.91000366210938,85.41999816894531,4369500,83.61822509765625
6/6/2016,80.61000061035156,81.41999816894531,79.97000122070312,81.2699966430664,2037300,79.5557632446289
6/3/2016,80.23999786376953,80.80000305175781,79.11000061035156,79.70999908447266,2134500,78.0286636352539
6/2/2016,79.95999908447266,80.58000183105469,79.19999694824219,80.48999786376953,2064600,78.79220581054688
6/1/2016,80.6500015258789,81.30999755859375,80,80.75,3337100,79.04673767089844
5/31/2016,82.02999877929688,82.4800033569336,81.08000183105469,81.36000061035156,3009200,79.64385986328125
5/27/2016,81.94000244140625,82.26000213623047,80.7699966430664,81.56999969482422,2100600,79.84943389892578
5/26/2016,83.55000305175781,83.94000244140625,82.20999908447266,82.30000305175781,2345600,80.56405639648438
5/25/2016,82.5,83.37999725341797,82.29000091552734,83.08000183105469,2895200,81.32758331298828
5/24/2016,81.79000091552734,83.08000183105469,80.6500015258789,82.48999786376953,3312900,80.7500228881836
5/23/2016,79.80000305175781,81.87000274658203,79.7300033569336,81.2699966430664,3193500,79.5557632446289
5/20/2016,80.58999633789062,81.30999755859375,79.54000091552734,80.91999816894531,3322800,79.21314239501953
5/19/2016,79.1500015258789,80.19000244140625,77.66000366210938,80.08000183105469,3798500,78.390869140625
5/18/2016,81.36000061035156,82.1500015258789,79.87999725341797,80.41000366210938,2492800,78.71389770507812
5/17/2016,80.80000305175781,82.4800033569336,80.38999938964844,81.56999969482422,3952300,79.84943389892578
5/16/2016,79.63999938964844,81.41000366210938,79.63999938964844,80.69000244140625,2992800,78.98799896240234
5/13/2016,80.20999908447266,80.97000122070312,78.5999984741211,78.6500015258789,3219100,76.99102783203125
5/12/2016,81.38999938964844,81.8499984741211,79.55000305175781,80.5,2277400,78.802001953125
5/11/2016,79.37999725341797,81.20999908447266,78.22000122070312,80.31999969482422,3192000,78.62580871582031
5/10/2016,78.7699966430664,79.8499984741211,78.70999908447266,79.7300033569336,4032100,78.04824829101562
5/9/2016,78.20999908447266,78.83000183105469,77.04000091552734,78.63999938964844,3002700,76.98123931884766
5/6/2016,78.83000183105469,81.6500015258789,78.08000183105469,78.68000030517578,5070700,77.0203857421875
5/5/2016,80.44000244140625,82.75,80.1500015258789,81.26000213623047,5206800,79.54598236083984
5/4/2016,80.61000061035156,82,78.80999755859375,79.33999633789062,3757600,77.66646575927734
5/3/2016,81.44000244140625,82.2300033569336,80.05000305175781,80.62999725341797,3808600,78.92926025390625
5/2/2016,82.33000183105469,83.05999755859375,80.68000030517578,82.77999877929688,4300700,81.03392028808594
4/29/2016,82.70999908447266,83.23999786376953,81.02999877929688,82.62000274658203,4570600,80.87728118896484
4/28/2016,83.8499984741211,84.75,81.5999984741211,81.88999938964844,3266000,80.1626968383789
4/27/2016,83.69000244140625,85.43000030517578,83.04000091552734,84.51000213623047,3795100,82.72740936279297
4/26/2016,80.5199966430664,82.86000061035156,79.97000122070312,82.77999877929688,3654700,81.03392028808594
4/25/2016,80.38999938964844,80.5199966430664,79.04000091552734,79.76000213623047,2828100,78.07760620117188
4/22/2016,79.66999816894531,81.77999877929688,79.5,80.91999816894531,3157300,79.21314239501953
4/21/2016,79.37999725341797,80.29000091552734,78.70999908447266,79.16000366210938,3336600,77.49027252197266
4/20/2016,78.12999725341797,80.05999755859375,76.63999938964844,79.37000274658203,4066200,77.69584655761719
4/19/2016,78.5199966430664,80.18000030517578,77.69999694824219,79.12999725341797,3829900,77.46089935302734
4/18/2016,74.04000091552734,77.68000030517578,73.56999969482422,77.44000244140625,3570600,75.8065414428711
4/15/2016,77.41999816894531,77.41999816894531,75.06999969482422,75.70999908447266,4868800,74.11304473876953
4/14/2016,78.02999877929688,78.62999725341797,77,77.80999755859375,2656500,76.16873931884766
4/13/2016,77.61000061035156,78.18000030517578,76.31999969482422,77.77999877929688,4629100,76.13937377929688
4/12/2016,74.45999908447266,77.83000183105469,73.54000091552734,77.51000213623047,5516200,75.71110534667969
4/11/2016,73.87999725341797,74.77999877929688,73.69999694824219,74.01000213623047,3457500,72.29232788085938
4/8/2016,73.37000274658203,73.5,72.44000244140625,73.47000122070312,3215900,71.76486206054688
4/7/2016,70.79000091552734,72.08000183105469,70.38999938964844,71.44999694824219,3017600,69.79174041748047
4/6/2016,70.68000030517578,71.70999908447266,69.76000213623047,71.22000122070312,4066500,69.56709289550781
4/5/2016,69.88999938964844,71.36000061035156,69.66000366210938,70.54000091552734,3467500,68.90286254882812
4/4/2016,72.4800033569336,72.62999725341797,70.11000061035156,70.30999755859375,3452600,68.67820739746094
4/1/2016,70.8499984741211,72.47000122070312,70.41000366210938,72.04000091552734,5143400,70.36805725097656
3/31/2016,73.4800033569336,74.41999816894531,72.37000274658203,72.58000183105469,5664700,70.89553833007812
3/30/2016,76.44000244140625,76.5,73.58999633789062,73.66000366210938,4136200,71.9504623413086
3/29/2016,73.16999816894531,75.63999938964844,73.13999938964844,75.44999694824219,3236900,73.69890594482422
3/28/2016,74.30000305175781,74.76000213623047,73.5199966430664,74.52999877929688,2628700,72.8002700805664
3/24/2016,72.41999816894531,74.91000366210938,72.31999969482422,74.30000305175781,3621400,72.57560729980469
3/23/2016,75.44999694824219,76.54000091552734,73.83999633789062,74.33999633789062,3840700,72.61467742919922
3/22/2016,75.38999938964844,77.25,75.37999725341797,75.9000015258789,2844300,74.13846588134766
3/21/2016,75.0199966430664,76.31999969482422,74.58999633789062,75.95999908447266,2899600,74.19706726074219
3/18/2016,77.5,77.69999694824219,74.62999725341797,75.62999725341797,7455600,73.8747329711914
3/17/2016,75.66000366210938,77.44999694824219,75.18000030517578,76.5,4675100,74.72453308105469
3/16/2016,74.37000274658203,75.2699966430664,72.69000244140625,75.04000091552734,4881800,73.29841613769531
3/15/2016,73.81999969482422,74.37000274658203,71.9000015258789,73.61000061035156,3910500,71.90160369873047
3/14/2016,73.70999908447266,75.44999694824219,73.29000091552734,74.77999877929688,3188400,73.0444564819336
3/11/2016,73.13999938964844,75.88999938964844,72.98999786376953,75.18000030517578,4282000,73.4351806640625
3/10/2016,71.16000366210938,72.86000061035156,70.30999755859375,72.2699966430664,4557300,70.59272766113281
3/9/2016,71.58999633789062,72.5,69.80999755859375,72.26000213623047,4693500,70.58295440673828
3/8/2016,74.6500015258789,74.83999633789062,70.4800033569336,70.55999755859375,6598900,68.92240142822266
3/7/2016,71.12000274658203,75.52999877929688,70.22000122070312,75.47000122070312,8446300,73.71843719482422
3/4/2016,69.91000366210938,71.5199966430664,68.73999786376953,71.41000366210938,7930800,69.752685546875
3/3/2016,66.94999694824219,69.66999816894531,66.18000030517578,69.25,6637100,67.64280700683594
3/2/2016,64.94999694824219,67.12000274658203,64.13999938964844,67,5243400,65.44503784179688
3/1/2016,65.0999984741211,65.47000122070312,62.529998779296875,65.0199966430664,7542900,63.51097869873047
2/29/2016,67.41999816894531,67.55999755859375,64.72000122070312,64.73999786376953,7950300,63.23746871948242
2/26/2016,68,69.69999694824219,65.73999786376953,67.5,10600800,65.93341827392578
2/25/2016,69.19000244140625,70.30000305175781,67.16999816894531,68.5,5346600,66.91020202636719
2/24/2016,67.2300033569336,69.94000244140625,66.75,69.5199966430664,4151500,67.90652465820312
2/23/2016,71.69000244140625,71.75,67.6500015258789,68.0199966430664,4418700,66.44136810302734
2/22/2016,69.70999908447266,72.7699966430664,69.70999908447266,72.20999908447266,4684600,70.53411102294922
2/19/2016,68.61000061035156,69.7300033569336,68.05999755859375,69.70999908447266,3575100,68.09212493896484
2/18/2016,70.98999786376953,71.2300033569336,69.33999633789062,69.45999908447266,3668100,67.84793090820312
2/17/2016,69,70.94000244140625,67.5999984741211,70.81999969482422,6288200,69.1763687133789
2/16/2016,68.7699966430664,69.08999633789062,66.25,67.88999938964844,3747900,66.31437683105469
2/12/2016,66.81999969482422,68.76000213623047,65.9800033569336,67.69999694824219,5476800,66.1287841796875
2/11/2016,63.619998931884766,65.98999786376953,63.060001373291016,65.55999755859375,5413000,64.0384521484375
2/10/2016,65.44999694824219,66.77999877929688,63.90999984741211,65.79000091552734,4302100,64.26312255859375
2/9/2016,67.20999908447266,67.97000122070312,64.33999633789062,65.58999633789062,6324800,64.06773376464844
2/8/2016,65.66000366210938,68.80000305175781,64.75,68.43000030517578,6274500,66.84183502197266
2/5/2016,67.68000030517578,67.68000030517578,65.62000274658203,67.05999755859375,5514400,65.50361633300781
2/4/2016,70.66999816894531,71.38999938964844,68.13999938964844,68.44000244140625,5131400,66.85160064697266
2/3/2016,68.61000061035156,70.2699966430664,66.31999969482422,70.19000244140625,5381200,68.56098937988281
2/2/2016,67.01000213623047,69.37000274658203,66,67.16000366210938,5463600,65.601318359375
2/1/2016,69.30000305175781,70,67.69000244140625,69.08999633789062,4489100,67.48651123046875
1/29/2016,69.16999816894531,71.18000030517578,69.0199966430664,71.0199966430664,6883200,69.37173461914062
1/28/2016,69.2300033569336,69.79000091552734,66.6500015258789,68.62999725341797,6737700,67.03718566894531
1/27/2016,65.08999633789062,67.93000030517578,64.48999786376953,66.06999969482422,7071300,64.53661346435547
1/26/2016,63,66.12999725341797,62.290000915527344,66.02999877929688,6782200,64.49754333496094
1/25/2016,64.62000274658203,66.1500015258789,61.5099983215332,61.59000015258789,4969200,60.160587310791016
1/22/2016,66.44000244140625,67.48999786376953,64.66999816894531,66.0199966430664,6827100,64.4877700805664
1/21/2016,60.2400016784668,64.25,59.40999984741211,63.75,7403900,62.27045440673828
1/20/2016,59.72999954223633,60.880001068115234,57.150001525878906,60.2400016784668,10621600,58.8419189453125
1/19/2016,63.150001525878906,63.630001068115234,59.47999954223633,60.97999954223633,5477000,59.56473922729492
1/15/2016,62.0099983215332,64.0199966430664,61.0099983215332,62.970001220703125,5870600,61.508567810058594
1/14/2016,64.66999816894531,66.61000061035156,63.61000061035156,65.26000213623047,7134900,63.74540328979492
1/13/2016,63.41999816894531,64.66000366210938,62.59000015258789,64.16999816894531,7745400,62.68070983886719
1/12/2016,64.6500015258789,65.18000030517578,61.349998474121094,62.91999816894531,7124500,61.296104431152344
1/11/2016,65.87999725341797,66.05999755859375,62.91999816894531,63.66999816894531,5356600,62.0267448425293
1/8/2016,65.86000061035156,66.43000030517578,64.7699966430664,65.5199966430664,4990100,63.82900619506836
1/7/2016,65.91999816894531,69.01000213623047,65.19000244140625,65.45999908447266,5297900,63.77054977416992
1/6/2016,68.5,68.5,66.69999694824219,67.31999969482422,6626700,65.58255004882812
1/5/2016,70.05999755859375,70.54000091552734,68.56999969482422,70.12999725341797,3665200,68.32003021240234
1/4/2016,70.80000305175781,71,68.83000183105469,69.68000030517578,5136700,67.88163757324219
12/31/2015,70.11000061035156,71.58999633789062,70,70.79000091552734,3117300,68.96300506591797
12/30/2015,69.80000305175781,71.08999633789062,69.73999786376953,70.61000061035156,3354700,68.78763580322266
12/29/2015,71.87999725341797,72.33000183105469,70.55000305175781,71.08999633789062,3168400,69.25524139404297
12/28/2015,71.76000213623047,71.9800033569336,70.20999908447266,70.48999786376953,3960600,68.67072296142578
12/24/2015,73.75,73.9800033569336,72.6500015258789,73.41999816894531,1792900,71.52510070800781
12/23/2015,71.4000015258789,73.76000213623047,70.79000091552734,73.69000244140625,5352700,71.78813934326172
12/22/2015,70.33000183105469,71.58000183105469,69.58000183105469,69.80999755859375,5185800,68.0082778930664
12/21/2015,71.5999984741211,71.8499984741211,69.30000305175781,70.25,5078800,68.43692779541016
12/18/2015,73.19000244140625,73.87000274658203,71.41000366210938,71.43000030517578,6633800,69.58647155761719
12/17/2015,75.47000122070312,75.9800033569336,71.93000030517578,73.30000305175781,6110000,71.40821075439453
12/16/2015,77.29000091552734,77.62000274658203,75.72000122070312,75.80000305175781,4961300,73.84368896484375
12/15/2015,77.97000122070312,78.66000366210938,76.9800033569336,77.30000305175781,5701000,75.30496978759766
12/14/2015,74.36000061035156,77.02999877929688,73.72000122070312,76.86000061035156,5827000,74.8763427734375
12/11/2015,77.31999969482422,79.43000030517578,74.76000213623047,74.88999938964844,4962000,72.95716094970703
12/10/2015,77.83999633789062,80.1500015258789,77.4000015258789,78.18000030517578,5016800,76.16226196289062
12/9/2015,77.47000122070312,80.4000015258789,76.87999725341797,78.37999725341797,5377100,76.35710144042969
12/8/2015,74.72000122070312,77.87999725341797,73.93000030517578,77.11000061035156,5336800,75.11986541748047
12/7/2015,77.87999725341797,78.4000015258789,74.55000305175781,76.19000244140625,6354500,74.22362518310547
12/4/2015,79.29000091552734,80.83999633789062,78.5,80.48999786376953,4754200,78.41262817382812
12/3/2015,81.63999938964844,82.4800033569336,80.25,80.98999786376953,4675000,78.89974212646484
12/2/2015,83.33000183105469,84.05999755859375,80.41000366210938,80.86000061035156,4543300,78.7730941772461
12/1/2015,83.44999694824219,84.12999725341797,83.0199966430664,84.05000305175781,2584200,81.8807601928711
11/30/2015,82.41000366210938,84.63999938964844,82.19999694824219,83.43000030517578,3833500,81.2767562866211
11/27/2015,82.87999725341797,83.2699966430664,81.9000015258789,82.0199966430664,1446600,79.90315246582031
11/25/2015,84.23999786376953,84.62999725341797,83.19999694824219,83.52999877929688,3037000,81.37418365478516
11/24/2015,83.30000305175781,85.6500015258789,83.16000366210938,85.13999938964844,4420900,82.94261932373047
11/23/2015,82.36000061035156,83.37999725341797,82.05999755859375,82.56999969482422,2718700,80.43894958496094
11/20/2015,83,83.2699966430664,81.9800033569336,82.62999725341797,2980700,80.49740600585938
11/19/2015,84.26000213623047,84.63999938964844,81.73999786376953,82.6500015258789,2797900,80.51689147949219
11/18/2015,83.83999633789062,85.26000213623047,82.94999694824219,85.1500015258789,3200900,82.95237731933594
11/17/2015,84.29000091552734,84.30999755859375,81.93000030517578,82.9800033569336,3290100,80.83838653564453
11/16/2015,82.44000244140625,84.86000061035156,82,84.79000091552734,3052700,82.6016616821289
11/13/2015,81.6500015258789,82.94999694824219,80.5,82.25,3111800,80.127197265625
11/12/2015,82.33999633789062,82.75,80.93000030517578,81.69000244140625,3436700,79.5816650390625
11/11/2015,86.3499984741211,87.9000015258789,83.19000244140625,83.31999969482422,3545500,81.16960144042969
11/10/2015,85.22000122070312,86.87999725341797,84.72000122070312,86.58000183105469,3909700,84.34546661376953
11/9/2015,85.94000244140625,87.18000030517578,84.48999786376953,85.37000274658203,3849900,83.16670227050781
11/6/2015,85.41000366210938,88.48999786376953,84.2300033569336,85.2699966430664,5272300,83.06926727294922
11/5/2015,86.27999877929688,88.22000122070312,85.44999694824219,86.47000122070312,4033800,84.23831176757812
11/4/2015,88.4800033569336,88.95999908447266,85.75,86.47000122070312,3892800,84.23831176757812
11/3/2015,86.9000015258789,89.5199966430664,86.27999877929688,88.44999694824219,5513900,86.16719818115234
11/2/2015,85.13999938964844,86.5,84.70999908447266,86.06999969482422,3597500,83.84861755371094
10/30/2015,85.77999877929688,86.68000030517578,84.37000274658203,85.8499984741211,3161600,83.63431549072266
10/29/2015,84.31999969482422,85.9000015258789,84.12999725341797,85.5199966430664,2819600,83.31281280517578
10/28/2015,82.9800033569336,86.16999816894531,82.3499984741211,84.79000091552734,3830000,82.6016616821289
10/27/2015,81.83999633789062,82.94999694824219,80.05000305175781,82.69999694824219,5147700,80.56560516357422
10/26/2015,85.0999984741211,85.29000091552734,83.25,83.38999938964844,3496500,81.23779296875
10/23/2015,85.08999633789062,86.08999633789062,84.31999969482422,85.43000030517578,2674900,83.22515106201172
10/22/2015,84.62999725341797,86.16999816894531,84.37000274658203,85.80000305175781,2901100,83.58560180664062
10/21/2015,84.44000244140625,84.69999694824219,83.41000366210938,83.77999877929688,3005600,81.61774444580078
10/20/2015,84.56999969482422,85.6500015258789,83.94999694824219,84.87000274658203,3543100,82.67961120605469
10/19/2015,86.2699966430664,86.47000122070312,84.11000061035156,84.80999755859375,4256500,82.62113952636719
10/16/2015,87.75,88,86.55999755859375,87.5,4128500,85.2417221069336
10/15/2015,85.30000305175781,87.16000366210938,84.93000030517578,87.13999938964844,3609900,84.89100646972656
10/14/2015,84.98999786376953,86.13999938964844,84.76000213623047,85.77999877929688,3325400,83.56612396240234
10/13/2015,85.12999725341797,86.29000091552734,84.75,85.27999877929688,5605900,82.91584777832031
10/12/2015,87.12000274658203,88,84.93000030517578,86.02999877929688,4804200,83.6450424194336
10/9/2015,87.3499984741211,88.30000305175781,86.0999984741211,87.30000305175781,5802200,84.87985229492188
10/8/2015,83.30999755859375,87.2699966430664,83.06999969482422,87.04000091552734,6795000,84.62705993652344
10/7/2015,84.37000274658203,85.4000015258789,82.18000030517578,83.7699966430664,6893100,81.44770050048828
10/6/2015,80.72000122070312,83.7300033569336,80.55000305175781,82.83999633789062,6777000,80.54348754882812
10/5/2015,78.16000366210938,81.69999694824219,78,80.6500015258789,7429300,78.41419219970703
10/2/2015,72.66999816894531,77.44999694824219,71.58999633789062,77.05999755859375,6032600,74.92371368408203
10/1/2015,73.80000305175781,75.68000030517578,73,73.58999633789062,5683400,71.54991912841797
9/30/2015,70.8499984741211,72.94000244140625,70.66999816894531,72.80000305175781,4762700,70.78180694580078
9/29/2015,69.86000061035156,70.66999816894531,69.13999938964844,70.12999725341797,3773600,68.18584442138672
9/28/2015,71.73999786376953,72.19000244140625,69.0999984741211,69.43000030517578,4581900,67.5052490234375
9/25/2015,74.05999755859375,74.20999908447266,72.19000244140625,72.79000091552734,3894300,70.77207946777344
9/24/2015,72.29000091552734,73.72000122070312,71.4800033569336,73.26000213623047,4443600,71.22905731201172
9/23/2015,75.23999786376953,75.93000030517578,72.87000274658203,73.04000091552734,3891400,71.0151596069336
9/22/2015,75.43000030517578,76.66000366210938,74.69000244140625,75.22000122070312,3433900,73.13471984863281
9/21/2015,77.05000305175781,77.33000183105469,75.87000274658203,76.5199966430664,3258700,74.39867401123047
9/18/2015,78.86000061035156,79.19000244140625,75.93000030517578,76.26000213623047,5964000,74.1458969116211
9/17/2015,80.0199966430664,81.18000030517578,79.12000274658203,79.66000366210938,5499100,77.45164489746094
9/16/2015,77.68000030517578,80.16999816894531,77.45999908447266,79.94000244140625,3996000,77.72388458251953
9/15/2015,77.04000091552734,77.80000305175781,76.55999755859375,77.25,3625100,75.10844421386719
9/14/2015,77.1500015258789,77.1500015258789,76.04000091552734,76.43000030517578,3705000,74.31118774414062
9/11/2015,76.75,77.41000366210938,75.83999633789062,77.1500015258789,4571800,75.01121520996094
9/10/2015,77.56999969482422,78.23999786376953,76.12999725341797,78.05999755859375,4814700,75.89598846435547
9/9/2015,78.73999786376953,79.3499984741211,76.66999816894531,76.93000030517578,6390100,74.79731750488281
9/8/2015,77.58000183105469,78.18000030517578,75.44999694824219,77.66000366210938,5137600,75.50708770751953
9/4/2015,76.22000122070312,77.44000244140625,75.94999694824219,76.88999938964844,4700700,74.75840759277344
9/3/2015,78.25,80.16000366210938,76.79000091552734,77.44999694824219,6228100,75.30290985107422
9/2/2015,77.05999755859375,77.70999908447266,74.87000274658203,77.70999908447266,5356500,75.55570220947266
9/1/2015,76.0199966430664,77.31999969482422,75.18000030517578,76.0199966430664,6376900,73.91254425048828
8/31/2015,76.19999694824219,79.16000366210938,74.56999969482422,78.30999755859375,6813800,76.13906860351562
8/28/2015,75.5,79.33999633789062,75.41000366210938,77.30999755859375,6962200,75.16680145263672
8/27/2015,72.98999786376953,76.0999984741211,72.86000061035156,75.79000091552734,7160700,73.68892669677734
8/26/2015,70.20999908447266,71.04000091552734,68.4000015258789,70.98999786376953,6763700,69.02197265625
8/25/2015,72.0999984741211,72.11000061035156,68.29000091552734,68.36000061035156,6720600,66.46491241455078
8/24/2015,70,73.27999877929688,68.1500015258789,69.26000213623047,9518800,67.3399658203125
8/21/2015,76.38999938964844,77.43000030517578,74.12000274658203,74.86000061035156,7769100,72.78472137451172
8/20/2015,77.0199966430664,78.44000244140625,76.61000061035156,76.7300033569336,6793500,74.60287475585938
8/19/2015,79.87000274658203,79.87999725341797,76.06999969482422,77.06999969482422,6122900,74.93342590332031
8/18/2015,79.70999908447266,80.54000091552734,79.27999877929688,80.41000366210938,3536700,78.18085479736328
8/17/2015,79.5,80.16000366210938,78.88999938964844,80.01000213623047,3747200,77.79193115234375
8/14/2015,79.5,80.87999725341797,78.80000305175781,79.93000030517578,3885400,77.71415710449219
8/13/2015,79.30000305175781,80.5,78.33999633789062,79.68000030517578,5889700,77.47108459472656
8/12/2015,77.31999969482422,80.26000213623047,76.5,79.93000030517578,8234000,77.71415710449219
8/11/2015,75.12999725341797,77.43000030517578,74.18000030517578,77.30000305175781,5851700,75.15706634521484
8/10/2015,73.66999816894531,76.4800033569336,73.62000274658203,76.2699966430664,6935200,74.15560913085938
8/7/2015,75.25,78.69999694824219,73.02999877929688,73.76000213623047,8476100,71.7152099609375
8/6/2015,75.6500015258789,78.33999633789062,75.30000305175781,77.68000030517578,6709500,75.52652740478516
8/5/2015,78.05999755859375,78.94999694824219,75.95999908447266,76.08999633789062,4896800,73.98060607910156
8/4/2015,77.08000183105469,77.7699966430664,76.3499984741211,76.73999786376953,3981900,74.61257934570312
8/3/2015,76.19999694824219,77.62999725341797,75.44999694824219,76.44000244140625,5136500,74.32090759277344
7/31/2015,78,78.30999755859375,77,77.19000244140625,4190200,75.05012512207031
7/30/2015,77.6500015258789,78.72000122070312,76.80000305175781,78.54000091552734,4539800,76.36267852783203
7/29/2015,76.5,79.01000213623047,76.5,77.73999786376953,6360600,75.58486938476562
7/28/2015,73.4000015258789,77.55999755859375,73.4000015258789,76.8499984741211,7887200,74.71954345703125
7/27/2015,74.0999984741211,74.7300033569336,72.86000061035156,73.19000244140625,5621300,71.1609878540039
7/24/2015,76.0999984741211,76.58000183105469,74.62000274658203,75.16000366210938,5850200,73.0763931274414
7/23/2015,76.19999694824219,76.81999969482422,75.47000122070312,76.31999969482422,6335400,74.20423889160156
7/22/2015,77.18000030517578,77.48999786376953,75.76000213623047,76.08999633789062,7205200,73.98060607910156
7/21/2015,78.08999633789062,78.37999725341797,76.94000244140625,77.33000183105469,6823700,75.18623352050781
7/20/2015,80.23999786376953,80.25,77.91999816894531,77.93000030517578,7054000,75.76960754394531
7/17/2015,81.97000122070312,82.1500015258789,80.26000213623047,80.5,6069300,78.26835632324219
7/16/2015,83.73999786376953,83.80000305175781,82.33999633789062,82.4000015258789,4019300,80.11567687988281
7/15/2015,84.62000274658203,85.2300033569336,83.05000305175781,83.25,3917300,80.94213104248047
7/14/2015,84.19999694824219,85.63999938964844,84.0999984741211,85.2300033569336,3276100,82.70438385009766
7/13/2015,84.52999877929688,84.79000091552734,83.47000122070312,84.20999908447266,3830200,81.714599609375
7/10/2015,85.9800033569336,86.76000213623047,84.44999694824219,84.54000091552734,2903800,82.0348129272461
7/9/2015,85.98999786376953,87.3499984741211,85.18000030517578,85.30000305175781,3784000,82.77230834960938
7/8/2015,86.0999984741211,86.91999816894531,84,84.48999786376953,4681200,81.9863052368164
7/7/2015,85.77999877929688,87.0999984741211,83.83000183105469,86.72000122070312,5118300,84.15021514892578
7/6/2015,84.48999786376953,86.18000030517578,84.05000305175781,85.08999633789062,3513300,82.5685043334961
7/2/2015,85.94999694824219,86.69999694824219,85.58999633789062,85.66999816894531,2699900,83.13134765625
7/1/2015,87.8499984741211,87.8499984741211,84.83999633789062,85.7699966430664,4644500,83.22836303710938
6/30/2015,86.98999786376953,87.9000015258789,86.33999633789062,87.55000305175781,3941400,84.95561218261719
6/29/2015,86.98999786376953,87.94000244140625,86.1500015258789,86.25,4022300,83.69415283203125
6/26/2015,87.5999984741211,88.69999694824219,87.08000183105469,88.05999755859375,11406600,85.45050048828125
6/25/2015,88.16999816894531,88.2699966430664,87.30000305175781,87.6500015258789,3797800,85.05265808105469
6/24/2015,88.54000091552734,89.06999969482422,88.0999984741211,88.33999633789062,3785900,85.72221374511719
6/23/2015,88.27999877929688,88.81999969482422,87.66000366210938,88.79000091552734,3613300,86.15885925292969
6/22/2015,88.5999984741211,88.66999816894531,87.44999694824219,88.08000183105469,2845600,85.46991729736328
6/19/2015,88.29000091552734,89.12000274658203,88.23999786376953,88.2699966430664,4298600,85.65428161621094
6/18/2015,89.76000213623047,90.12999725341797,88.54000091552734,88.80999755859375,3602500,86.17829132080078
6/17/2015,90.68000030517578,91.1500015258789,88.41999816894531,89.0199966430664,4998100,86.38204956054688
6/16/2015,89.06999969482422,90.36000061035156,89.02999877929688,90.08000183105469,2286400,87.41065979003906
6/15/2015,88.51000213623047,89.86000061035156,88.5,89.22000122070312,2795300,86.57613372802734
6/12/2015,90.16000366210938,90.43000030517578,89.12000274658203,89.52999877929688,2464100,86.87693786621094
6/11/2015,91,91.05000305175781,90.2300033569336,90.6500015258789,2300900,87.96376037597656
6/10/2015,90.38999938964844,90.70999908447266,89.66000366210938,90.41000366210938,2914800,87.73087310791016
6/9/2015,90.0199966430664,91.4800033569336,89.08999633789062,89.08999633789062,2661000,86.44998168945312
6/8/2015,89.37000274658203,89.95999908447266,88.62999725341797,89.11000061035156,2733800,86.4693832397461
6/5/2015,87,90.63999938964844,86.81999969482422,89.68000030517578,4429900,87.02251434326172
6/4/2015,88.2300033569336,89.12999725341797,87.27999877929688,87.37999725341797,3774200,84.79067993164062
6/3/2015,89.55000305175781,90.47000122070312,88.97000122070312,89.01000213623047,2158400,86.37236022949219
6/2/2015,89.0199966430664,90.3499984741211,88.20999908447266,89.7699966430664,3534200,87.10983276367188
6/1/2015,89.0199966430664,89.12000274658203,88.18000030517578,88.76000213623047,2886500,86.1297607421875
5/29/2015,89.41999816894531,89.5199966430664,88.26000213623047,88.69000244140625,3929600,86.06183624267578
5/28/2015,88.55000305175781,89.36000061035156,88,89.1500015258789,3790800,86.5082015991211
5/27/2015,89.12999725341797,89.94000244140625,88.51000213623047,89,3016900,86.36265563964844
5/26/2015,89.25,89.80999755859375,88.55000305175781,89.1500015258789,3920700,86.5082015991211
5/22/2015,90.4000015258789,91.38999938964844,90.06999969482422,90.26000213623047,3055500,87.58531188964844
5/21/2015,91.16999816894531,91.83000183105469,90.68000030517578,91.48999786376953,3958000,88.77885437011719
5/20/2015,90.5999984741211,90.72000122070312,89.76000213623047,90.45999908447266,3734400,87.77938842773438
5/19/2015,91.4800033569336,91.61000061035156,90.23999786376953,90.26000213623047,3588500,87.58531188964844
5/18/2015,90.55999755859375,92.04000091552734,89.9000015258789,91.80000305175781,2980200,89.0796890258789
5/15/2015,90.31999969482422,91.23999786376953,89.25,90.47000122070312,3267300,87.78910064697266
5/14/2015,91.98999786376953,92.08000183105469,90.68000030517578,90.7300033569336,3582200,88.04138946533203
5/13/2015,94.04000091552734,94.06999969482422,90.9800033569336,91.5999984741211,3548300,88.88561248779297
5/12/2015,91.76000213623047,93.58999633789062,91.70999908447266,93.41000366210938,3468500,90.64198303222656
5/11/2015,94.05000305175781,94.23999786376953,91.47000122070312,91.61000061035156,3952400,88.89530181884766
5/8/2015,94.4800033569336,94.5,92.55999755859375,93.5,4922300,90.72931671142578
5/7/2015,96.0999984741211,96.0999984741211,92.41999816894531,93.5,5197800,90.72931671142578
5/6/2015,96.20999908447266,96.86000061035156,94.48999786376953,95.08000183105469,5163500,92.2624740600586
5/5/2015,98.69999694824219,100.19999694824219,94.52999877929688,94.54000091552734,11762000,91.73847961425781
5/4/2015,99.11000061035156,101.36000061035156,98.55000305175781,99.38999938964844,7312700,96.44476318359375
5/1/2015,99.20999908447266,101,97.61000061035156,98.9000015258789,3584700,95.96930694580078
4/30/2015,100,100.44000244140625,98.4800033569336,98.94999694824219,3462000,96.01778411865234
4/29/2015,98.22000122070312,99.9800033569336,97.79000091552734,99.73999786376953,3902600,96.78437805175781
4/28/2015,97.63999938964844,98.80999755859375,97.63999938964844,98.45999908447266,3736600,95.54232025146484
4/27/2015,97.55000305175781,97.95999908447266,96.55999755859375,97.36000061035156,2980500,94.47492218017578
4/24/2015,97.9000015258789,97.97000122070312,95.91000366210938,96.72000122070312,3139600,93.85387420654297
4/23/2015,97.9800033569336,99.25,97.83999633789062,98.2699966430664,2708400,95.35794830322266
4/22/2015,96.94000244140625,98.5999984741211,96.30000305175781,97.69999694824219,2897800,94.80484771728516
4/21/2015,97.83000183105469,98.31999969482422,96.36000061035156,96.58999633789062,3238300,93.72773742675781
4/20/2015,97.18000030517578,99.01000213623047,97.18000030517578,97.73999786376953,3127700,94.84366607666016
4/17/2015,97.04000091552734,97.47000122070312,96.38999938964844,97.2300033569336,3201200,94.3487777709961
4/16/2015,97.83000183105469,98.94999694824219,97.16999816894531,98,4054400,95.09596252441406
4/15/2015,96.76000213623047,98.33999633789062,96.43000030517578,97.95999908447266,5859500,95.05713653564453
4/14/2015,95.66000366210938,96.94999694824219,95.33999633789062,96.45999908447266,3192200,93.60159301757812
4/13/2015,96.75,96.9000015258789,94.19999694824219,94.69000244140625,3111400,91.72149658203125
4/10/2015,95.87000274658203,96.5999984741211,95.25,96.58999633789062,2570400,93.56193542480469
4/9/2015,94.11000061035156,96.06999969482422,94.11000061035156,95.70999908447266,3408000,92.70952606201172
4/8/2015,95.01000213623047,95.58000183105469,93.80000305175781,94.04000091552734,3274400,91.09187316894531
4/7/2015,95.19999694824219,95.98999786376953,94.12000274658203,94.2699966430664,5233200,91.31465148925781
4/6/2015,93.36000061035156,95.4000015258789,93.30000305175781,94.87000274658203,4770000,91.89586639404297
4/2/2015,90.30000305175781,92.97000122070312,89.2300033569336,92.70999908447266,4596300,89.80359649658203
4/1/2015,92.04000091552734,93.3499984741211,91.05999755859375,91.22000122070312,3813800,88.36029052734375
3/31/2015,91.12999725341797,92.47000122070312,90.83000183105469,91.69000244140625,3576000,88.81555938720703
3/30/2015,91.63999938964844,92.5,90.77999877929688,92.13999938964844,3478900,89.25143432617188
3/27/2015,90.62000274658203,91.12000274658203,90.13999938964844,90.55999755859375,2530900,87.72096252441406
3/26/2015,91.48999786376953,91.93000030517578,90.25,91.36000061035156,4857100,88.49588775634766
3/25/2015,89.68000030517578,90.6500015258789,88.79000091552734,89.95999908447266,3664800,87.1397933959961
3/24/2015,89.19999694824219,89.94000244140625,88.63999938964844,88.83999633789062,2681200,86.05488586425781
3/23/2015,91.25,91.41000366210938,89,89,3181200,86.20989990234375
3/20/2015,89.75,91.94000244140625,89.43000030517578,90.68000030517578,5980000,87.83721160888672
3/19/2015,89.4000015258789,89.9000015258789,88.36000061035156,89.52999877929688,3558700,86.72325897216797
3/18/2015,86.08000183105469,91.37000274658203,86,90.66000366210938,5383000,87.8178482055664
3/17/2015,86.86000061035156,87.97000122070312,86.4000015258789,86.80000305175781,3775200,84.07884979248047
3/16/2015,85.11000061035156,88.02999877929688,85.05999755859375,87.9000015258789,4953800,85.14436340332031
3/13/2015,85.19999694824219,85.66000366210938,84.0999984741211,85.38999938964844,4415600,82.71305847167969
3/12/2015,87.05000305175781,87.19000244140625,85.62000274658203,85.70999908447266,3051700,83.02303314208984
3/11/2015,86.41999816894531,87.37000274658203,85.87999725341797,86.55000305175781,3973700,83.83668518066406
3/10/2015,86.87999725341797,88.56999969482422,86.1500015258789,86.19000244140625,4791900,83.48797607421875
3/9/2015,88.08000183105469,89.25,87.63999938964844,87.72000122070312,3443600,84.97001647949219
3/6/2015,88.91999816894531,90,88.2300033569336,88.56999969482422,4063600,85.79337310791016
3/5/2015,89.8499984741211,90.5199966430664,89.37000274658203,89.58999633789062,2688100,86.78137969970703
3/4/2015,90.19999694824219,90.94999694824219,88.55000305175781,90.48999786376953,3868200,87.65315246582031
3/3/2015,88.9800033569336,91.11000061035156,88.5999984741211,90.37000274658203,4381400,87.53694152832031
3/2/2015,89.72000122070312,89.72000122070312,87.08000183105469,89.05999755859375,5347800,86.26800537109375
2/27/2015,90.62999725341797,90.70999908447266,89.29000091552734,89.72000122070312,3837600,86.90731048583984
2/26/2015,91.80999755859375,92.25,89.61000061035156,90.12999725341797,5427100,87.304443359375
2/25/2015,91.54000091552734,93.25,91.29000091552734,93.02999877929688,5787800,90.11356353759766
2/24/2015,92.8499984741211,93,91.26000213623047,91.61000061035156,4160100,88.73804473876953
2/23/2015,90.05999755859375,92.0999984741211,89.25,91.93000030517578,5501300,89.04802703857422
2/20/2015,93.08999633789062,93.45999908447266,90.06999969482422,91.08000183105469,7937800,88.22468566894531
2/19/2015,86.68000030517578,94.73999786376953,86.58000183105469,93.80000305175781,18682400,90.85940551757812
2/18/2015,96.48999786376953,96.48999786376953,94.5,95.30999755859375,4279700,92.32206726074219
2/17/2015,96.08000183105469,96.66999816894531,95.6500015258789,96.48999786376953,4234300,93.4650650024414
2/13/2015,95.94000244140625,96.97000122070312,95.25,96.91999816894531,4158500,93.88159942626953
2/12/2015,94.95999908447266,95.23999786376953,93.47000122070312,94.80000305175781,3944500,91.82806396484375
2/11/2015,93.83999633789062,94.08999633789062,92.1500015258789,93.19999694824219,6332300,90.27821350097656
2/10/2015,96.6500015258789,96.69000244140625,93.83999633789062,95.26000213623047,4308300,92.27364349365234
2/9/2015,96.5999984741211,97.2300033569336,95.77999877929688,95.94999694824219,4249100,92.94200134277344
2/6/2015,96.98999786376953,97.20999908447266,95.56999969482422,95.79000091552734,5177000,92.78703308105469
2/5/2015,95.70999908447266,97.29000091552734,95.16000366210938,96.19000244140625,5596600,93.17446899414062
2/4/2015,94.4000015258789,97.52999877929688,93.54000091552734,95.19000244140625,9869100,92.20582580566406
2/3/2015,94.72000122070312,97.87999725341797,94.6500015258789,96.30999755859375,8898600,93.29071807861328
2/2/2015,90.98999786376953,92.56999969482422,89.52999877929688,92.5199966430664,5615500,89.61954498291016
1/30/2015,88.16000366210938,90.06999969482422,87.4000015258789,89.02999877929688,7469900,86.23892211914062
1/29/2015,89.12000274658203,89.41000366210938,86.76000213623047,88.91000366210938,5188700,86.12271118164062
1/28/2015,92.33000183105469,92.69000244140625,87.76000213623047,88.0999984741211,5772900,85.33808898925781
1/27/2015,91.94000244140625,94.41000366210938,91.12000274658203,93,5283000,90.08446502685547
1/26/2015,91.2300033569336,92.38999938964844,90.1500015258789,92.33000183105469,3431100,89.43550109863281
1/23/2015,90.06999969482422,92.5199966430664,89.69999694824219,90.79000091552734,4410800,87.94375610351562
1/22/2015,91.37999725341797,91.37999725341797,88.58000183105469,90.36000061035156,4471600,87.52722930908203
1/21/2015,90.58999633789062,91.4000015258789,89.68000030517578,90.54000091552734,4911900,87.70159912109375
1/20/2015,89.08999633789062,89.77999877929688,87.5199966430664,89.33000183105469,5869600,86.52955627441406
1/16/2015,86.86000061035156,90.54000091552734,86.54000091552734,90.30999755859375,5483500,87.47882080078125
1/15/2015,89.04000091552734,89.5,86.44999694824219,86.52999877929688,4941700,83.81731414794922
1/14/2015,84.06999969482422,88.08999633789062,83.66999816894531,87.73999786376953,6698200,84.9893798828125
1/13/2015,84.97000122070312,86.66000366210938,84.05000305175781,85.05999755859375,5444200,82.23114013671875
1/12/2015,85.11000061035156,85.3499984741211,83.19999694824219,84.51000213623047,4810300,81.69944763183594
1/9/2015,87.0199966430664,88.02999877929688,86.01000213623047,87.45999908447266,4027200,84.55133819580078
1/8/2015,84.72000122070312,87.6500015258789,84.06999969482422,86.87999725341797,5836500,83.99063110351562
1/7/2015,85.18000030517578,85.7300033569336,82.72000122070312,83.68000030517578,5950300,80.89704132080078
1/6/2015,85.83999633789062,86.5999984741211,82.76000213623047,84.20999908447266,8142000,81.40940856933594
1/5/2015,89.95999908447266,90.77999877929688,86.0199966430664,86.68000030517578,6173600,83.79729461669922
1/2/2015,91.01000213623047,92.98999786376953,90.36000061035156,92.23999786376953,3462300,89.17236328125
12/31/2014,91.97000122070312,93.55000305175781,90.75,92.06999969482422,3329200,89.00802612304688
12/30/2014,93.5,94.33000183105469,91.88999938964844,92.69999694824219,3379400,89.61705780029297
12/29/2014,94.55000305175781,95.20999908447266,93.44999694824219,94.33000183105469,3397000,91.19287109375
12/26/2014,94.9000015258789,95.19999694824219,93.33000183105469,93.81999969482422,2210600,90.69981384277344
12/24/2014,95.61000061035156,95.63999938964844,92.51000213623047,94.05000305175781,3012800,90.92217254638672
12/23/2014,95.73999786376953,97.2699966430664,94.54000091552734,96.41000366210938,4243900,93.20368957519531
12/22/2014,94.20999908447266,95.62000274658203,93.68000030517578,95.05999755859375,6746600,91.8985824584961
12/19/2014,93.62999725341797,95.08999633789062,92.44999694824219,95.0199966430664,7853400,91.85991668701172
12/18/2014,93.83000183105469,94.38999938964844,88.9000015258789,92.44999694824219,8888600,89.37538146972656
12/17/2014,87.61000061035156,92.20999908447266,86.11000061035156,91.13999938964844,10269500,88.10893249511719
12/16/2014,83.86000061035156,89.38999938964844,83.77999877929688,85.47000122070312,8303700,82.62752532958984
12/15/2014,87.08999633789062,88.16000366210938,84.94999694824219,85.33999633789062,6867000,82.5018310546875
12/12/2014,85.30999755859375,88.41999816894531,85.0999984741211,86.37000274658203,6606200,83.49759674072266
12/11/2014,87.19000244140625,89.76000213623047,86.12999725341797,86.86000061035156,5808100,83.97129821777344
12/10/2014,86.37999725341797,87.26000213623047,85.54000091552734,86.79000091552734,8821700,83.90360260009766
12/9/2014,87,91.12000274658203,86.7699966430664,89.1500015258789,8197500,86.18512725830078
12/8/2014,89.08000183105469,89.5,87.51000213623047,88.19000244140625,8672200,85.2570571899414
12/5/2014,91.91000366210938,92.05000305175781,89.77999877929688,90.75,7572500,87.7319107055664
12/4/2014,90.79000091552734,93,89.75,93,5108100,89.9070816040039
12/3/2014,91.70999908447266,93.5999984741211,90.80000305175781,91.80000305175781,6237200,88.74701690673828
12/2/2014,87.37999725341797,91.33000183105469,86.87000274658203,90.30000305175781,10159600,87.29690551757812
12/1/2014,85.5199966430664,87.58000183105469,83.66000366210938,87.23999786376953,10063500,84.3386459350586
11/28/2014,87.16000366210938,88.43000030517578,85.19000244140625,86.72000122070312,9472100,83.8359375
11/26/2014,96.62000274658203,96.62999725341797,93.86000061035156,94.06999969482422,5346100,90.94149780273438
11/25/2014,100.27999877929688,100.31999969482422,96.72000122070312,96.73999786376953,5592000,93.522705078125
11/24/2014,101.18000030517578,101.73999786376953,99.25,99.55999755859375,4110900,96.24893951416016
11/21/2014,102.48999786376953,103.04000091552734,101.29000091552734,101.73999786376953,6378700,98.35643005371094
11/20/2014,98.44999694824219,100.29000091552734,98.33999633789062,99.44000244140625,4624100,96.1329116821289
11/19/2014,98.75,98.80000305175781,96.77999877929688,98.33000183105469,3830800,95.05982971191406
11/18/2014,96.31999969482422,98.26000213623047,96.08999633789062,97.66999816894531,3917200,94.4217758178711
11/17/2014,97.01000213623047,97.37999725341797,95.7300033569336,96.3499984741211,4349400,93.14566802978516
11/14/2014,96.31999969482422,98.36000061035156,96.19999694824219,98.16000366210938,3992700,94.8954849243164
11/13/2014,96.5,97.44000244140625,94.47000122070312,95.8499984741211,5859300,92.66231536865234
11/12/2014,98.68000030517578,99.3499984741211,97.3499984741211,97.55999755859375,3433700,94.31543731689453
11/11/2014,98.5,99.06999969482422,97.11000061035156,98.75,4274300,95.46585845947266
11/10/2014,101.01000213623047,102.25,97.98999786376953,98.5,5947800,95.22417449951172
11/7/2014,99.72000122070312,101.58000183105469,99.2699966430664,99.55000305175781,7009200,96.2392578125
11/6/2014,95.19000244140625,99.18000030517578,95.11000061035156,98.97000122070312,8202200,95.67855072021484
11/5/2014,95.5,97.47000122070312,93.55999755859375,96.0999984741211,11401900,92.90398406982422
11/4/2014,89.66999816894531,90.98999786376953,89,90.27999877929688,8208000,87.27753448486328
11/3/2014,95.05000305175781,96.80999755859375,92.88999938964844,93.31999969482422,7006200,90.21643829345703
10/31/2014,91.94999694824219,95.0999984741211,90.73999786376953,95.05000305175781,5495200,91.88890838623047
10/30/2014,92.56999969482422,93.29000091552734,91.02999877929688,92.22000122070312,3746200,89.15303802490234
10/29/2014,94.23999786376953,95.31999969482422,91.76000213623047,93.12999725341797,5926100,90.03276062011719
10/28/2014,88.80999755859375,91.91000366210938,87.55000305175781,91.5,6123200,88.45698547363281
10/27/2014,90.27999877929688,90.27999877929688,86.94999694824219,88.43000030517578,7433800,85.48905944824219
10/24/2014,92.94999694824219,93.0199966430664,90.19999694824219,92.0999984741211,5417400,89.0370101928711
10/23/2014,94.23999786376953,94.83999633789062,92.4000015258789,93.4000015258789,9219300,90.2938003540039
10/22/2014,96.76000213623047,97,91.9800033569336,92.06999969482422,7672400,89.00802612304688
10/21/2014,94.3499984741211,96.1500015258789,94.2699966430664,96.02999877929688,6298800,92.83631896972656
10/20/2014,91.62999725341797,93.12999725341797,90.7699966430664,92.76000213623047,4420600,89.67506408691406
10/17/2014,94.19999694824219,95.55000305175781,90.26000213623047,91.22000122070312,8665500,88.18628692626953
10/16/2014,85.19000244140625,92.5199966430664,85.19000244140625,91.2699966430664,10111100,88.23462677001953
10/15/2014,82.02999877929688,88.52999877929688,81.06999969482422,88.16999816894531,11107300,85.23773193359375
10/14/2014,85.4000015258789,86.87999725341797,83.5,83.83999633789062,12228000,80.88978576660156
10/13/2014,89.25,90.30000305175781,83.58000183105469,83.76000213623047,9446700,80.81261444091797
10/10/2014,91.06999969482422,91.94999694824219,88.61000061035156,89.83000183105469,9915400,86.66900634765625
10/9/2014,93.63999938964844,93.7300033569336,90.87999725341797,91.95999908447266,9684400,88.72407531738281
10/8/2014,93.30999755859375,94.69000244140625,90.80000305175781,94.55999755859375,7723600,91.23255920410156
10/7/2014,95.0199966430664,96.0199966430664,93.56999969482422,93.61000061035156,5515800,90.31598663330078
