4/22/2019,118.6500015258789,119.19999694824219,116.87000274658203,117.23999786376953,1854900,117.23999786376953
4/18/2019,119.77999877929688,121.29000091552734,119.22000122070312,119.86000061035156,3742000,119.86000061035156
4/17/2019,118.69999694824219,118.7699966430664,117.16999816894531,117.38999938964844,1659900,117.38999938964844
4/16/2019,116.9000015258789,118.43000030517578,116.62999725341797,118.4000015258789,2004200,118.4000015258789
4/15/2019,115.87000274658203,116.56999969482422,115.4800033569336,116.47000122070312,1094100,116.47000122070312
4/12/2019,115.4000015258789,115.77999877929688,114.58999633789062,115.5999984741211,879800,115.5999984741211
4/11/2019,114.9000015258789,115.2699966430664,114.25,114.5199966430664,761900,114.5199966430664
4/10/2019,114.66000366210938,115.23999786376953,114.45999908447266,114.9000015258789,779300,114.9000015258789
4/9/2019,113.83000183105469,114.83999633789062,113.3499984741211,114.27999877929688,797500,114.27999877929688
4/8/2019,114.77999877929688,114.88999938964844,113.7699966430664,114.4000015258789,988200,114.4000015258789
4/5/2019,115.08000183105469,115.63999938964844,114.62000274658203,114.95999908447266,837800,114.95999908447266
4/4/2019,115.33999633789062,115.98999786376953,114.55000305175781,115,1301900,115
4/3/2019,115.25,115.70999908447266,114.16000366210938,114.58000183105469,1284100,114.58000183105469
4/2/2019,114.43000030517578,115.26000213623047,113.5199966430664,114.23999786376953,961900,114.23999786376953
4/1/2019,113.62000274658203,115.0999984741211,113.43000030517578,114.22000122070312,1526100,114.22000122070312
3/29/2019,112,113,111.93000030517578,112.87000274658203,1384900,112.87000274658203
3/28/2019,110.79000091552734,112.08999633789062,110.5199966430664,111.72000122070312,1691300,111.72000122070312
3/27/2019,108.61000061035156,110.5199966430664,108.33000183105469,110.08000183105469,1705800,110.08000183105469
3/26/2019,107.69999694824219,108.5199966430664,107.37000274658203,108.36000061035156,1132100,108.36000061035156
3/25/2019,107.04000091552734,108.02999877929688,106.55000305175781,107.05999755859375,1493500,107.05999755859375
3/22/2019,110.4000015258789,110.76000213623047,106.4800033569336,106.69000244140625,2509900,106.69000244140625
3/21/2019,110.61000061035156,113.22000122070312,110.51000213623047,112.63999938964844,949700,112.63999938964844
3/20/2019,110.8499984741211,111.4800033569336,110.26000213623047,110.81999969482422,1476900,110.81999969482422
3/19/2019,111.30999755859375,112.1500015258789,110.4000015258789,110.9000015258789,1520300,110.9000015258789
3/18/2019,110.27999877929688,111.05000305175781,109.6500015258789,110.94999694824219,1734600,110.94999694824219
3/15/2019,109.5199966430664,110.5,109.13999938964844,110.02999877929688,1923900,110.02999877929688
3/14/2019,111.04000091552734,111.12000274658203,108.98999786376953,109.68000030517578,1432500,109.68000030517578
3/13/2019,111.58999633789062,111.91999816894531,110.41000366210938,111.33000183105469,1524700,111.33000183105469
3/12/2019,110.30000305175781,112.05000305175781,110.30000305175781,111.1500015258789,1282700,111.1500015258789
3/11/2019,110.02999877929688,111.30999755859375,109.7300033569336,111.30000305175781,1180300,111.30000305175781
3/8/2019,109.01000213623047,109.66000366210938,107.83000183105469,109.62999725341797,1011900,109.62999725341797
3/7/2019,110.4000015258789,110.5,108.58999633789062,109.83999633789062,1039700,109.83999633789062
3/6/2019,110.83000183105469,111.44000244140625,110.19000244140625,110.55000305175781,622600,110.55000305175781
3/5/2019,111.31999969482422,111.77999877929688,110.70999908447266,110.75,860000,110.75
3/4/2019,113,113.02999877929688,109.97000122070312,111.36000061035156,988900,111.36000061035156
3/1/2019,112.7300033569336,113.30999755859375,112.06999969482422,112.76000213623047,848400,112.76000213623047
2/28/2019,112.19000244140625,112.19000244140625,111.30000305175781,111.97000122070312,999500,111.97000122070312
2/27/2019,111.25,112.5,110.91000366210938,112.16999816894531,610100,112.16999816894531
2/26/2019,112.01000213623047,112.30999755859375,111.44000244140625,111.47000122070312,778100,111.47000122070312
2/25/2019,112,112.69999694824219,111.27999877929688,112.31999969482422,1017600,112.31999969482422
2/22/2019,110.8499984741211,111.5999984741211,110.43000030517578,111.44000244140625,920600,111.44000244140625
2/21/2019,109.52999877929688,110.29000091552734,108.93000030517578,110.12999725341797,790200,110.12999725341797
2/20/2019,108.83000183105469,110.98999786376953,108.5,109.73999786376953,1022600,109.26000213623047
2/19/2019,108.58999633789062,109.56999969482422,108.30000305175781,108.7300033569336,977700,108.25442504882812
2/15/2019,108.4000015258789,109.20999908447266,107.68000030517578,109.11000061035156,1043100,108.63275909423828
2/14/2019,107.19999694824219,108.0999984741211,106.04000091552734,107.26000213623047,847900,106.79084777832031
2/13/2019,108,108.91999816894531,107.30999755859375,107.88999938964844,1023900,107.4180908203125
2/12/2019,105.4800033569336,107.68000030517578,105.1500015258789,107.61000061035156,1082100,107.13932037353516
2/11/2019,105.08999633789062,105.41000366210938,104.52999877929688,104.72000122070312,818000,104.261962890625
2/8/2019,104.45999908447266,104.86000061035156,103.36000061035156,104.86000061035156,983800,104.4013442993164
2/7/2019,105.63999938964844,106.05999755859375,104.41999816894531,104.8499984741211,916100,104.39138793945312
2/6/2019,106.51000213623047,106.76000213623047,105.5999984741211,106.0999984741211,927000,105.63591766357422
2/5/2019,106.73999786376953,107.05999755859375,105.58999633789062,107.01000213623047,1204300,106.54194641113281
2/4/2019,105.66000366210938,106.44999694824219,104.7300033569336,106.26000213623047,1072800,105.79522705078125
2/1/2019,105.63999938964844,106.44999694824219,105.02999877929688,105.7699966430664,945800,105.30736541748047
1/31/2019,104.33000183105469,105.87999725341797,103.97000122070312,105.44000244140625,1466500,104.97881317138672
1/30/2019,105.06999969482422,105.91999816894531,104.06999969482422,105.05000305175781,1042700,104.59051513671875
1/29/2019,103.76000213623047,104.55000305175781,103,104.4800033569336,1607800,104.02301025390625
1/28/2019,102.88999938964844,103.83000183105469,102.51000213623047,103.69999694824219,823000,103.24641418457031
1/25/2019,103.3499984741211,104.02999877929688,103.13999938964844,103.5,1277200,103.04729461669922
1/24/2019,101.7699966430664,102.63999938964844,101.36000061035156,102.22000122070312,1121600,101.77289581298828
1/23/2019,104.30999755859375,104.81999969482422,100.9000015258789,102.05000305175781,2229200,101.6036376953125
1/22/2019,104.87000274658203,105.3499984741211,103.4000015258789,104.3499984741211,1464900,103.8935775756836
1/18/2019,106.20999908447266,107.19999694824219,104.36000061035156,105.43000030517578,2247900,104.9688491821289
1/17/2019,103.37000274658203,107.51000213623047,103.29000091552734,107.36000061035156,3655600,106.89041137695312
1/16/2019,101.37999725341797,103.5,100.87000274658203,102.54000091552734,2483600,102.09149169921875
1/15/2019,100.05999755859375,101.81999969482422,99.41000366210938,101,2509500,100.5582275390625
1/14/2019,101.29000091552734,102.5999984741211,100.94000244140625,101.95999908447266,870100,101.51403045654297
1/11/2019,101.91000366210938,102.37999725341797,101.5,101.86000061035156,1065000,101.41446685791016
1/10/2019,101.25,102.70999908447266,100.61000061035156,102.6500015258789,1015200,102.20101165771484
1/9/2019,101.33999633789062,101.79000091552734,100.25,101.5,1071000,101.05604553222656
1/8/2019,100.73999786376953,101.63999938964844,99.5199966430664,101.06999969482422,1648100,100.62792205810547
1/7/2019,99.87000274658203,101.70999908447266,99.04000091552734,100.23999786376953,1277800,99.80155181884766
1/4/2019,97.5,100.73999786376953,96.81999969482422,99.91000366210938,1801500,99.4729995727539
1/3/2019,101.29000091552734,101.38999938964844,97.58999633789062,97.97000122070312,1118400,97.5414810180664
1/2/2019,101.02999877929688,102.19999694824219,100.44999694824219,101.69000244140625,1063300,101.2452163696289
12/31/2018,101.81999969482422,102.91000366210938,101.2300033569336,102.2300033569336,1162700,101.78285217285156
12/28/2018,101.69000244140625,102.75,100.62999725341797,101.2300033569336,1119500,100.78722381591797
12/27/2018,98.29000091552734,101.43000030517578,98,101.41999816894531,1430400,100.97638702392578
12/26/2018,95.83999633789062,99.30000305175781,94.41000366210938,99.2699966430664,1310600,98.8357925415039
12/24/2018,96.04000091552734,98.08999633789062,95.3499984741211,95.5999984741211,1100000,95.18184661865234
12/21/2018,97.36000061035156,99.5199966430664,96.27999877929688,96.31999969482422,2350600,95.89869689941406
12/20/2018,97.4800033569336,98.94000244140625,96.05000305175781,97.06999969482422,2327500,96.64541625976562
12/19/2018,97.93000030517578,99.66999816894531,95.81999969482422,96.43000030517578,1686500,96.00821685791016
12/18/2018,97.80000305175781,98.66999816894531,96.2699966430664,96.69999694824219,1684800,96.27703094482422
12/17/2018,100.02999877929688,100.48999786376953,96.56999969482422,97.12999725341797,1487000,96.70515441894531
12/14/2018,99.94000244140625,100.83000183105469,97.58000183105469,100.13999938964844,2367800,99.70198822021484
12/13/2018,103.6500015258789,104.1500015258789,100.4800033569336,100.9000015258789,1611500,100.45867156982422
12/12/2018,104.0199966430664,104.80000305175781,103.41999816894531,103.45999908447266,852800,103.0074691772461
12/11/2018,105.1500015258789,105.75,102.5999984741211,103.04000091552734,834600,102.58930969238281
12/10/2018,103.12999725341797,103.83000183105469,101.12000274658203,103.45999908447266,1209000,103.0074691772461
12/7/2018,106.16999816894531,107.54000091552734,102.5999984741211,103.2300033569336,1185000,102.77848052978516
12/6/2018,105.44000244140625,105.81999969482422,103.19999694824219,105.79000091552734,1734200,105.32727813720703
12/4/2018,110.41999816894531,110.7300033569336,106.54000091552734,106.7300033569336,1457600,106.26316833496094
12/3/2018,110.37999725341797,111.41999816894531,109.31999969482422,110.55999755859375,1206500,110.07640838623047
11/30/2018,108.23999786376953,109.98999786376953,108.23999786376953,109.33000183105469,1962000,108.85179901123047
11/29/2018,108.27999877929688,109.41999816894531,107.76000213623047,108.47000122070312,2603700,107.99555969238281
11/28/2018,106.05000305175781,107.72000122070312,104.51000213623047,107.63999938964844,1277600,107.16918182373047
11/27/2018,106.72000122070312,107.29000091552734,105.44000244140625,105.80000305175781,944400,105.33723449707031
11/26/2018,108,108.13999938964844,106.83000183105469,107.33999633789062,1730600,106.87049102783203
11/23/2018,106.06999969482422,108.08000183105469,105.98999786376953,107.29000091552734,381900,106.82071685791016
11/21/2018,106.5999984741211,108.38999938964844,106.33999633789062,106.80999755859375,1099700,106.34281158447266
11/20/2018,106.33999633789062,106.68000030517578,104.86000061035156,105.87999725341797,1940100,105.41688537597656
11/19/2018,107.36000061035156,108.70999908447266,106.8499984741211,107.69999694824219,1291200,107.22891998291016
11/16/2018,106.62000274658203,108.0199966430664,105.8499984741211,107.16999816894531,2201200,106.70124053955078
11/15/2018,104.69000244140625,107.7300033569336,104.01000213623047,107.08000183105469,1375300,106.61164093017578
11/14/2018,105.19999694824219,106.68000030517578,104.68000030517578,105.3499984741211,1345300,104.88919830322266
11/13/2018,105.63999938964844,105.9800033569336,104,104.30999755859375,3662100,103.85375213623047
11/12/2018,107.69999694824219,107.91999816894531,105.2300033569336,105.4000015258789,2173500,104.9389877319336
11/9/2018,108.19999694824219,108.58999633789062,106.36000061035156,107.70999908447266,897300,107.23887634277344
11/8/2018,108.5199966430664,108.94999694824219,105.72000122070312,108.66999816894531,1028800,108.1946792602539
11/7/2018,108,109.56999969482422,106.61000061035156,109.52999877929688,1299900,108.57301330566406
11/6/2018,106.66000366210938,107.43000030517578,106.27999877929688,107.36000061035156,934600,106.4219741821289
11/5/2018,106.8499984741211,107.22000122070312,105.94999694824219,106.44999694824219,1474800,105.51992797851562
11/2/2018,106.87000274658203,107.9800033569336,105.61000061035156,106.91000366210938,1315500,105.97591400146484
11/1/2018,105.08999633789062,107.37999725341797,105.08999633789062,106.73999786376953,1476900,105.80738830566406
10/31/2018,105,106.4800033569336,104.23999786376953,105.08999633789062,2595000,104.17180633544922
10/30/2018,102.9800033569336,104.61000061035156,102.12000274658203,104.22000122070312,3070700,103.30941009521484
10/29/2018,105.05000305175781,105.91000366210938,101.41000366210938,102.88999938964844,4258500,101.99103546142578
10/26/2018,102.58000183105469,103.94999694824219,101.06999969482422,102.83000183105469,2826000,101.93155670166016
10/25/2018,102.94000244140625,104.12999725341797,100.33999633789062,103.70999908447266,4542200,102.80387115478516
10/24/2018,99.9000015258789,100.58000183105469,97.54000091552734,97.77999877929688,2990900,96.92567443847656
10/23/2018,100.11000061035156,101.12000274658203,98.29000091552734,100.62999725341797,3073900,99.75077056884766
10/22/2018,101.61000061035156,101.83000183105469,99.81999969482422,101.66000366210938,3852000,100.77178192138672
10/19/2018,100.36000061035156,101.81999969482422,99.7699966430664,101.38999938964844,3417100,100.50414276123047
10/18/2018,99.2300033569336,100.62000274658203,97.4000015258789,98.98999786376953,3516100,98.12510681152344
10/17/2018,97.97000122070312,98.55999755859375,97.30999755859375,98.12000274658203,2665300,97.26271057128906
10/16/2018,96.62000274658203,98.33999633789062,95.97000122070312,98.18000030517578,1854200,97.32218170166016
10/15/2018,94.83999633789062,96.66999816894531,94.37000274658203,96.1500015258789,2355200,95.30992126464844
10/12/2018,97.23999786376953,97.98999786376953,94.4000015258789,95.08999633789062,2449300,94.2591781616211
10/11/2018,99.30000305175781,99.80999755859375,96.11000061035156,96.37999725341797,2762300,95.53791046142578
10/10/2018,101.18000030517578,101.54000091552734,97.58999633789062,99.5999984741211,5162700,98.72977447509766
10/9/2018,100.06999969482422,101.91999816894531,98.30999755859375,98.55999755859375,10425700,97.69886016845703
10/8/2018,108.0199966430664,109.76000213623047,107.80999755859375,109.58000183105469,1310200,108.6225814819336
10/5/2018,108.37000274658203,108.9000015258789,107.68000030517578,108.0199966430664,868200,107.07621002197266
10/4/2018,108.19999694824219,108.9000015258789,107.43000030517578,108.45999908447266,1294800,107.51235961914062
10/3/2018,110.6500015258789,111.38999938964844,108.58999633789062,108.7300033569336,2440500,107.78001403808594
10/2/2018,109.87999725341797,110.72000122070312,109.8499984741211,110.20999908447266,1314700,109.24707794189453
10/1/2018,109.66000366210938,110.33000183105469,109.33000183105469,109.75,1337800,108.79109954833984
9/28/2018,108.79000091552734,109.16000366210938,107.12000274658203,109.12999725341797,2456700,108.17650604248047
9/27/2018,110.38999938964844,110.38999938964844,108.91999816894531,108.98999786376953,1806900,108.03773498535156
9/26/2018,111.51000213623047,112.16000366210938,110.19000244140625,110.38999938964844,1425300,109.42550659179688
9/25/2018,113.0199966430664,113.13999938964844,110.95999908447266,111.54000091552734,1629000,110.56546020507812
9/24/2018,113,114,110.25,112.69000244140625,2396500,111.70540618896484
9/21/2018,116.51000213623047,116.7300033569336,115.55999755859375,115.9800033569336,3487400,114.96666717529297
9/20/2018,115.5999984741211,116.5,115.20999908447266,115.91999816894531,1259900,114.90718841552734
9/19/2018,113.66000366210938,115.22000122070312,113.27999877929688,115.05000305175781,1529700,114.04479217529297
9/18/2018,113.4800033569336,113.75,112.5199966430664,113.2699966430664,998100,112.28034210205078
9/17/2018,112.27999877929688,113.41000366210938,111.9000015258789,112.98999786376953,1414800,112.0027847290039
9/14/2018,112.81999969482422,113.25,111.5199966430664,112.16999816894531,1316100,111.18994903564453
9/13/2018,112.91000366210938,113.79000091552734,112.33999633789062,112.94999694824219,1032600,111.963134765625
9/12/2018,112.4000015258789,112.56999969482422,111.5199966430664,112.02999877929688,1214700,111.05117797851562
9/11/2018,111.6500015258789,113.0999984741211,111.33999633789062,112.58999633789062,1288600,111.60627746582031
9/10/2018,112.12000274658203,112.52999877929688,111.44000244140625,112.08999633789062,984600,111.11064147949219
9/7/2018,111.41999816894531,111.87000274658203,110.56999969482422,111.51000213623047,859500,110.53572082519531
9/6/2018,110.94999694824219,112.20999908447266,110.52999877929688,112,1297300,111.02143859863281
9/5/2018,109.33999633789062,110.98999786376953,108.76000213623047,110.5999984741211,1633100,109.63367462158203
9/4/2018,110.5,110.56999969482422,109.06999969482422,109.87999725341797,924600,108.91995239257812
8/31/2018,110.37000274658203,111.2699966430664,109.8499984741211,110.54000091552734,956900,109.5741958618164
8/30/2018,111.33999633789062,111.33999633789062,110.20999908447266,110.66000366210938,887500,109.69314575195312
8/29/2018,109.98999786376953,111.81999969482422,109.37999725341797,111.66000366210938,1406500,110.68441009521484
8/28/2018,111.36000061035156,111.36000061035156,109.62000274658203,109.87000274658203,1505700,108.91004943847656
8/27/2018,110.77999877929688,111.44999694824219,110.55999755859375,111.12999725341797,1137300,110.1590347290039
8/24/2018,110.23999786376953,110.83000183105469,109.73999786376953,110.62000274658203,869000,109.65349578857422
8/23/2018,110.26000213623047,110.80000305175781,109.6500015258789,109.7699966430664,1389900,108.8109130859375
8/22/2018,111.04000091552734,111.33000183105469,110.2699966430664,110.5999984741211,1271900,109.63367462158203
8/21/2018,109.9800033569336,111.80999755859375,109.69999694824219,111.08000183105469,1587700,110.1094741821289
8/20/2018,108.8499984741211,110.48999786376953,108.48999786376953,109.7300033569336,1488800,108.77127075195312
8/17/2018,108.0199966430664,108.75,107.4800033569336,108.41999816894531,773200,107.47270965576172
8/16/2018,107.8499984741211,108.47000122070312,107.37000274658203,107.9000015258789,1213400,106.95726013183594
8/15/2018,106.5199966430664,107.19999694824219,105.44000244140625,107.02999877929688,1310100,106.09485626220703
8/14/2018,106.05999755859375,107.20999908447266,106.05999755859375,106.8499984741211,771300,105.91642761230469
8/13/2018,107.29000091552734,107.63999938964844,105.58999633789062,106.08000183105469,1272800,105.15316772460938
8/10/2018,108.68000030517578,108.98999786376953,107.37000274658203,107.45999908447266,628200,106.52110290527344
8/9/2018,108.80999755859375,110.0199966430664,108.0999984741211,109.20999908447266,1013200,108.25580596923828
8/8/2018,110.16000366210938,110.16000366210938,108.58000183105469,109.25,797700,107.81966400146484
8/7/2018,110.55000305175781,110.83000183105469,109.83999633789062,109.95999908447266,581600,108.5203628540039
8/6/2018,110.37000274658203,110.83999633789062,109.70999908447266,110.31999969482422,854600,108.87564849853516
8/3/2018,109.93000030517578,111.05999755859375,109.66000366210938,110.94999694824219,1041900,109.49739837646484
8/2/2018,109.31999969482422,109.86000061035156,108.63999938964844,109.31999969482422,975400,107.88874053955078
8/1/2018,110.25,111.16000366210938,109.68000030517578,109.7300033569336,1155500,108.29338073730469
7/31/2018,109.87000274658203,110.83999633789062,109.43000030517578,110.66000366210938,1390300,109.2112045288086
7/30/2018,109.56999969482422,111.04000091552734,109.05000305175781,109.73999786376953,1420700,108.30323791503906
7/27/2018,110.2699966430664,110.48999786376953,108.52999877929688,109.44000244140625,1259800,108.00717163085938
7/26/2018,109.36000061035156,111,109.13999938964844,110.66000366210938,1482900,109.2112045288086
7/25/2018,108.01000213623047,109.61000061035156,107.38999938964844,109.27999877929688,1933400,107.8492660522461
7/24/2018,104.77999877929688,106.52999877929688,104.37999725341797,106.05000305175781,1375500,104.66155242919922
7/23/2018,104.52999877929688,105.05000305175781,103.8499984741211,104.41000366210938,1772600,103.04302978515625
7/20/2018,105.87999725341797,105.94000244140625,104.80000305175781,105,1391700,103.62529754638672
7/19/2018,106.75,107.0199966430664,103.33999633789062,106.38999938964844,2543700,104.99710845947266
7/18/2018,106.33000183105469,107.45999908447266,105.62000274658203,106.75,2899700,105.3523941040039
7/17/2018,102.3499984741211,105.66000366210938,102.08000183105469,105.41000366210938,2170700,104.02993774414062
7/16/2018,103.8499984741211,104.02999877929688,101.91000366210938,102.37000274658203,2177000,101.02973937988281
7/13/2018,103.41000366210938,104.1500015258789,102.9000015258789,103.98999786376953,1568700,102.62852478027344
7/12/2018,104.44000244140625,104.44000244140625,103.30000305175781,103.83999633789062,1476800,102.48048400878906
7/11/2018,103.91000366210938,104.79000091552734,103.33999633789062,103.75,1683500,102.39167022705078
7/10/2018,104.12000274658203,104.87000274658203,103.70999908447266,104.80000305175781,1340700,103.42792510986328
7/9/2018,103.22000122070312,104.16999816894531,103.08999633789062,103.91999816894531,1171200,102.55944061279297
7/6/2018,102.36000061035156,103.33999633789062,101.87999725341797,103,1025400,101.6514892578125
7/5/2018,101.94999694824219,102.88999938964844,101.62000274658203,102.80999755859375,1445500,101.46397399902344
7/3/2018,102.87999725341797,103.83000183105469,101.87000274658203,102,800600,100.66458129882812
7/2/2018,102.72000122070312,103.37999725341797,101.16999816894531,102.68000030517578,2304300,101.33567810058594
6/29/2018,105.69000244140625,106.02999877929688,103.66999816894531,103.7300033569336,3074300,102.3719253540039
6/28/2018,105.5,106.94000244140625,103.9000015258789,105.72000122070312,2833500,104.33587646484375
6/27/2018,106.2699966430664,106.33999633789062,104.98999786376953,105.11000061035156,2166800,103.7338638305664
6/26/2018,105.51000213623047,106.7300033569336,105.29000091552734,105.83000183105469,2075000,104.4444351196289
6/25/2018,105.11000061035156,105.18000030517578,104.5,105.11000061035156,3175600,103.7338638305664
6/22/2018,104.6500015258789,105.86000061035156,104.5199966430664,105.41999816894531,3094300,104.03980255126953
6/21/2018,104.80999755859375,104.80999755859375,103.58999633789062,104.30000305175781,3472600,102.9344711303711
6/20/2018,104.01000213623047,105.26000213623047,104.01000213623047,105.13999938964844,1810700,103.76347351074219
6/19/2018,104.05000305175781,104.29000091552734,103,104.12999725341797,2613800,102.76668548583984
6/18/2018,104.44000244140625,105.01000213623047,103.76000213623047,105,1978600,103.62529754638672
6/15/2018,104.08999633789062,105.41999816894531,103.9000015258789,105.37999725341797,3221900,104.00032806396484
6/14/2018,103.62000274658203,104.16999816894531,102.69999694824219,103.95999908447266,2071500,102.59891510009766
6/13/2018,103.62000274658203,104.05000305175781,103.02999877929688,103.30000305175781,2391500,101.94756317138672
6/12/2018,104,104.30999755859375,102.72000122070312,103.52999877929688,2211700,102.17455291748047
6/11/2018,103.88999938964844,104.38999938964844,103.45999908447266,103.93000030517578,1094700,102.56930541992188
6/8/2018,102.98999786376953,104.37999725341797,102.52999877929688,104.1500015258789,1444900,102.78643798828125
6/7/2018,104.19000244140625,104.19999694824219,102.41000366210938,103.08999633789062,1261300,101.74030303955078
6/6/2018,102.52999877929688,104.0999984741211,101.86000061035156,103.93000030517578,1367000,102.56930541992188
6/5/2018,102.45999908447266,102.91999816894531,101.97000122070312,102.5,854900,101.15802764892578
6/4/2018,102.44999694824219,102.86000061035156,101.97000122070312,102.43000030517578,1013900,101.08894348144531
6/1/2018,101.56999969482422,102.94999694824219,100.87000274658203,102.01000213623047,1420600,100.67444610595703
5/31/2018,101.68000030517578,101.7699966430664,100.81999969482422,100.91999816894531,1774400,99.59871673583984
5/30/2018,101.52999877929688,101.83999633789062,100.36000061035156,101.43000030517578,2070100,100.10204315185547
5/29/2018,102.44000244140625,103.11000061035156,100.61000061035156,101.04000091552734,1618300,99.71715545654297
5/25/2018,102.04000091552734,103.51000213623047,101.66999816894531,103.4000015258789,1121500,102.04625701904297
5/24/2018,102.36000061035156,102.93000030517578,101.5,102.5,1087500,101.15802764892578
5/23/2018,102.23999786376953,102.9800033569336,101.69999694824219,102.70999908447266,1279000,101.36528778076172
5/22/2018,105.02999877929688,105.2300033569336,102.72000122070312,102.83999633789062,1549200,101.49357604980469
5/21/2018,105.5,105.86000061035156,104.83999633789062,105.02999877929688,1229700,103.6549072265625
5/18/2018,104.16000366210938,105.30000305175781,104.02999877929688,104.94999694824219,2830000,103.5759506225586
5/17/2018,103.26000213623047,104.72000122070312,103.25,104.41000366210938,1292900,103.04302978515625
5/16/2018,101.88999938964844,103.9800033569336,101.20999908447266,103.5,2090300,102.14494323730469
5/15/2018,102.77999877929688,103.23999786376953,101.79000091552734,103.02999877929688,1787800,101.68109893798828
5/14/2018,101.04000091552734,102.97000122070312,100.97000122070312,102.97000122070312,3719800,101.62187957763672
5/11/2018,105.8499984741211,106.29000091552734,100.36000061035156,100.43000030517578,7285000,99.1151351928711
5/10/2018,107.26000213623047,107.69999694824219,105.94000244140625,106.11000061035156,1951500,104.72077178955078
5/9/2018,106.70999908447266,107.41000366210938,106.11000061035156,107.05000305175781,1153300,105.64846801757812
5/8/2018,106.06999969482422,107.16000366210938,105.94999694824219,106.68000030517578,900600,104.83920288085938
5/7/2018,106.4800033569336,106.9800033569336,105.63999938964844,106.20999908447266,997700,104.37730407714844
5/4/2018,104.4800033569336,107.04000091552734,104.13999938964844,106.4000015258789,1193900,104.56403350830078
5/3/2018,105.55000305175781,106.19999694824219,104.27999877929688,104.95999908447266,1281300,103.14887237548828
5/2/2018,107.05000305175781,107.2699966430664,105.4000015258789,105.70999908447266,1889900,103.88593292236328
5/1/2018,105.0999984741211,106.94000244140625,104.0199966430664,106.91999816894531,1316600,105.07505798339844
4/30/2018,108.51000213623047,108.9000015258789,105.75,105.87999725341797,1413100,104.05299377441406
4/27/2018,107.30999755859375,108.33999633789062,107.19999694824219,107.97000122070312,1022500,106.10694122314453
4/26/2018,107.97000122070312,108.08999633789062,106.44000244140625,107.69999694824219,1173700,105.84159088134766
4/25/2018,107.45999908447266,109.47000122070312,105.91999816894531,107.87999725341797,2649100,106.01849365234375
4/24/2018,108.97000122070312,109.44999694824219,104.38999938964844,105.7699966430664,2372200,103.94490051269531
4/23/2018,108.80000305175781,109.80000305175781,108.69999694824219,108.87999725341797,1431100,107.00123596191406
4/20/2018,109.45999908447266,110.16999816894531,108.23999786376953,108.87000274658203,1971200,106.99140930175781
4/19/2018,113.75,113.9000015258789,108.37999725341797,109.63999938964844,2374000,107.74812316894531
4/18/2018,113.30999755859375,113.83000183105469,112.77999877929688,113.19000244140625,2156800,111.23687744140625
4/17/2018,112.19999694824219,113.48999786376953,111.66999816894531,113.08000183105469,1604200,111.12876892089844
4/16/2018,110.87999725341797,112,110.45999908447266,111.7699966430664,1739300,109.84135437011719
4/13/2018,110.6500015258789,110.93000030517578,109.55999755859375,110,1185900,108.10191345214844
4/12/2018,109.75,110.43000030517578,108.62999725341797,110.04000091552734,1901900,108.14122009277344
4/11/2018,109.37999725341797,109.8499984741211,108.56999969482422,109.27999877929688,1298800,107.39433288574219
4/10/2018,110.62000274658203,111.25,109.9000015258789,110.36000061035156,1522100,108.45569610595703
4/9/2018,110.30000305175781,111.37000274658203,109.37000274658203,109.61000061035156,1270100,107.71863555908203
4/6/2018,110.5999984741211,111.86000061035156,108.4000015258789,109.38999938964844,1677800,107.50243377685547
4/5/2018,111.69999694824219,112.30000305175781,111.08999633789062,111.66999816894531,1472500,109.74308776855469
4/4/2018,108.38999938964844,110.88999938964844,107.94999694824219,110.79000091552734,1259400,108.87828063964844
4/3/2018,108.5,110.43000030517578,107.79000091552734,110.18000030517578,2203000,108.27880859375
4/2/2018,111.55000305175781,111.58000183105469,107.04000091552734,108.26000213623047,1504700,106.3919448852539
3/29/2018,110.36000061035156,112.52999877929688,110.04000091552734,111.5999984741211,1277000,109.6742935180664
3/28/2018,112.18000030517578,112.83999633789062,109.94000244140625,109.97000122070312,2016700,108.07243347167969
3/27/2018,112.58999633789062,113.91999816894531,111.47000122070312,111.91000366210938,1530500,109.97895812988281
3/26/2018,110.62000274658203,112.0999984741211,110.01000213623047,111.93000030517578,1187400,109.99860382080078
3/23/2018,111.44000244140625,111.80000305175781,109.38999938964844,109.4800033569336,1371600,107.59088134765625
3/22/2018,113.12000274658203,113.76000213623047,111.12000274658203,111.30999755859375,1251000,109.38929748535156
3/21/2018,114,115.44999694824219,113.72000122070312,113.94999694824219,1233800,111.98374938964844
3/20/2018,115,115.58000183105469,113.69999694824219,113.8499984741211,1446900,111.88548278808594
3/19/2018,114.41999816894531,114.86000061035156,112.62000274658203,113.22000122070312,1109300,111.26634979248047
3/16/2018,114.29000091552734,115.20999908447266,113.8499984741211,114.93000030517578,2409700,112.94684600830078
3/15/2018,115.20999908447266,115.83999633789062,113.97000122070312,114.27999877929688,1127000,112.30805969238281
3/14/2018,116.4800033569336,116.75,114.68000030517578,115.04000091552734,1000500,113.05493927001953
3/13/2018,117.19999694824219,117.83000183105469,115.4800033569336,116.06999969482422,1338400,114.06716918945312
3/12/2018,117.6500015258789,118.62000274658203,115.5999984741211,116.45999908447266,1293000,114.450439453125
3/9/2018,116.20999908447266,117.73999786376953,115.94999694824219,117.6500015258789,1412300,115.61990356445312
3/8/2018,115.41000366210938,115.63999938964844,114.83999633789062,115.4000015258789,1059800,113.40872955322266
3/7/2018,113.77999877929688,115.31999969482422,113.69999694824219,115.0199966430664,1311600,113.03528594970703
3/6/2018,113.08999633789062,116.13999938964844,112.69999694824219,115.06999969482422,1531000,113.08442687988281
3/5/2018,109.5,113.08999633789062,109.5,112.76000213623047,1997100,110.81428527832031
3/2/2018,110.2300033569336,110.88999938964844,109.58999633789062,110.25,1360200,108.34760284423828
3/1/2018,111.94999694824219,113.12999725341797,110.30000305175781,111.11000061035156,1603700,109.19276428222656
2/28/2018,113.69999694824219,114.72000122070312,112.29000091552734,112.44000244140625,2725300,110.49981689453125
2/27/2018,117.75,117.87999725341797,115.2699966430664,115.30999755859375,1090800,113.3202896118164
2/26/2018,117.55000305175781,117.75,116.23999786376953,117.52999877929688,964900,115.50198364257812
2/23/2018,116.68000030517578,117.5999984741211,115.87999725341797,117.45999908447266,738500,115.43318176269531
2/22/2018,116.2699966430664,117.0999984741211,115.58999633789062,115.86000061035156,919700,113.86079406738281
2/21/2018,115.4800033569336,117.7300033569336,115.31999969482422,115.62000274658203,1017400,113.62493896484375
2/20/2018,115.3499984741211,116.12000274658203,114.75,115.4000015258789,1038400,113.40872955322266
2/16/2018,115.86000061035156,117.2300033569336,115.37000274658203,116.16000366210938,995900,114.15562438964844
2/15/2018,116.23999786376953,116.55000305175781,114.80999755859375,116.19000244140625,1276900,114.18510437011719
2/14/2018,113.8499984741211,116.81999969482422,113.47000122070312,116.31999969482422,1283800,113.87062072753906
2/13/2018,113.44000244140625,114.81999969482422,112.5999984741211,114.55999755859375,1423800,112.14768981933594
2/12/2018,113,114.7300033569336,112.86000061035156,113.9800033569336,1242900,111.57990264892578
2/9/2018,111.76000213623047,113.19999694824219,108.73999786376953,112.37000274658203,1739300,110.0038070678711
2/8/2018,113.88999938964844,114.19999694824219,110.2699966430664,110.30000305175781,2099500,107.97737884521484
2/7/2018,113.86000061035156,116.73999786376953,113.4800033569336,114.12999725341797,2223300,111.72673797607422
2/6/2018,110.33000183105469,114.19999694824219,109.5999984741211,113.95999908447266,2392000,111.56031036376953
2/5/2018,115.29000091552734,117.12000274658203,111.62000274658203,111.9800033569336,2484600,109.62201690673828
2/2/2018,117.27999877929688,117.45999908447266,115.51000213623047,115.61000061035156,1659200,113.17556762695312
2/1/2018,118.16000366210938,118.7699966430664,115.56999969482422,117.62000274658203,1393900,115.14324951171875
1/31/2018,118.87000274658203,119.06999969482422,118.19999694824219,118.7300033569336,1400100,116.22987365722656
1/30/2018,119.19999694824219,119.66000366210938,117.77999877929688,118.3499984741211,1172300,115.85787200927734
1/29/2018,120.91000366210938,121.6500015258789,119.37999725341797,119.56999969482422,1332200,117.05218505859375
1/26/2018,120.5,121.5,119.62000274658203,121.47000122070312,1686800,118.91217803955078
1/25/2018,119.76000213623047,120.77999877929688,118.97000122070312,120.20999908447266,2489400,117.6787109375
1/24/2018,117.54000091552734,119.12000274658203,117.3499984741211,118.94000244140625,1985500,116.43545532226562
1/23/2018,116.51000213623047,118.11000061035156,116.51000213623047,117.25,1731700,114.78103637695312
1/22/2018,118.26000213623047,118.66000366210938,116.36000061035156,116.77999877929688,1672600,114.32093811035156
1/19/2018,118.05000305175781,119.12999725341797,116.52999877929688,118.44000244140625,2953300,115.94597625732422
1/18/2018,115.75,122.06999969482422,115.16000366210938,118.41000366210938,3736600,115.91661834716797
1/17/2018,116.5999984741211,117.04000091552734,114.27999877929688,114.5,3795000,112.08895111083984
1/16/2018,118.55999755859375,118.98999786376953,116.16999816894531,116.63999938964844,2373800,114.18388366699219
1/12/2018,118.01000213623047,118.5999984741211,117.66999816894531,118.16999816894531,1466300,115.6816635131836
11/6/2017,116.55999755859375,116.77999877929688,116.30999755859375,116.33999633789062,639600,113.89019775390625
11/3/2017,116.18000030517578,116.86000061035156,115.88999938964844,116.52999877929688,781600,114.0761947631836
11/2/2017,116.0999984741211,116.20999908447266,115.5199966430664,116.16000366210938,984600,113.71399688720703
11/1/2017,116.33999633789062,116.72000122070312,115.48999786376953,115.91999816894531,1140000,113.47904968261719
