4/22/2019,14.069999694824219,14.550000190734863,13.970000267028809,14.510000228881836,741200,14.510000228881836
4/18/2019,14.170000076293945,14.170000076293945,13.84000015258789,13.899999618530273,778400,13.899999618530273
4/17/2019,14.100000381469727,14.470000267028809,13.970000267028809,14.170000076293945,1167800,14.170000076293945
4/16/2019,14.75,14.779999732971191,13.960000038146973,14.050000190734863,2437200,14.050000190734863
4/15/2019,15.520000457763672,15.520000457763672,15.100000381469727,15.140000343322754,557900,15.140000343322754
4/12/2019,15.899999618530273,15.899999618530273,15.5600004196167,15.579999923706055,432400,15.579999923706055
4/11/2019,15.4399995803833,15.619999885559082,15.329999923706055,15.569999694824219,456200,15.569999694824219
4/10/2019,15.520000457763672,15.59000015258789,15.270000457763672,15.460000038146973,811400,15.460000038146973
4/9/2019,15.399999618530273,15.539999961853027,15.1899995803833,15.4399995803833,639000,15.4399995803833
4/8/2019,15.579999923706055,15.770000457763672,15.390000343322754,15.489999771118164,471700,15.489999771118164
4/5/2019,15.079999923706055,15.579999923706055,15.079999923706055,15.550000190734863,694300,15.550000190734863
4/4/2019,14.729999542236328,15.039999961853027,14.65999984741211,15.039999961853027,790800,15.039999961853027
4/3/2019,14.779999732971191,14.9399995803833,14.630000114440918,14.710000038146973,487800,14.710000038146973
4/2/2019,14.84000015258789,15.130000114440918,14.600000381469727,14.680000305175781,1220500,14.680000305175781
4/1/2019,14.899999618530273,15.239999771118164,14.789999961853027,14.789999961853027,1174600,14.789999961853027
3/29/2019,14.850000381469727,14.899999618530273,14.569999694824219,14.739999771118164,694300,14.739999771118164
3/28/2019,14.619999885559082,14.800000190734863,14.430000305175781,14.640000343322754,596900,14.640000343322754
3/27/2019,14.729999542236328,14.869999885559082,14.5600004196167,14.699999809265137,779400,14.699999809265137
3/26/2019,14.789999961853027,15.140000343322754,14.609999656677246,14.739999771118164,448200,14.739999771118164
3/25/2019,14.470000267028809,14.65999984741211,14.1899995803833,14.630000114440918,492800,14.630000114440918
3/22/2019,14.800000190734863,14.829999923706055,14.479999542236328,14.489999771118164,503800,14.489999771118164
3/21/2019,14.84000015258789,15.319999694824219,14.84000015258789,14.979999542236328,708400,14.979999542236328
3/20/2019,14.680000305175781,14.930000305175781,14.380000114440918,14.880000114440918,930200,14.880000114440918
3/19/2019,14.9399995803833,15.130000114440918,14.619999885559082,14.6899995803833,703800,14.6899995803833
3/18/2019,14.529999732971191,14.8100004196167,14.470000267028809,14.779999732971191,1136100,14.779999732971191
3/15/2019,14.510000228881836,14.649999618530273,14.430000305175781,14.489999771118164,1175900,14.489999771118164
3/14/2019,14.449999809265137,14.739999771118164,14.449999809265137,14.630000114440918,1075000,14.630000114440918
3/13/2019,14.75,14.779999732971191,14.380000114440918,14.479999542236328,762400,14.479999542236328
3/12/2019,14.539999961853027,14.770000457763672,14.4399995803833,14.670000076293945,967700,14.670000076293945
3/11/2019,14.050000190734863,14.75,14.050000190734863,14.470000267028809,1279400,14.470000267028809
3/8/2019,14.199999809265137,14.380000114440918,13.779999732971191,14.079999923706055,1572100,14.079999923706055
3/7/2019,14.680000305175781,14.859999656677246,14.520000457763672,14.75,1099800,14.75
3/6/2019,14.960000038146973,15.050000190734863,14.619999885559082,14.670000076293945,838200,14.670000076293945
3/5/2019,15.130000114440918,15.270000457763672,14.949999809265137,15.0600004196167,763400,15.0600004196167
3/4/2019,15.300000190734863,15.430000305175781,14.819999694824219,15.130000114440918,1086000,15.130000114440918
3/1/2019,15.390000343322754,15.550000190734863,14.920000076293945,15.220000267028809,2072000,15.220000267028809
2/28/2019,16.56999969482422,16.59000015258789,14.930000305175781,15.739999771118164,3262200,15.267000198364258
2/27/2019,16.540000915527344,16.8700008392334,16.209999084472656,16.600000381469727,1468400,16.10115623474121
2/26/2019,16.8799991607666,16.899999618530273,16.450000762939453,16.469999313354492,1193100,15.975062370300293
2/25/2019,16.81999969482422,16.989999771118164,16.700000762939453,16.829999923706055,1255500,16.32424545288086
2/22/2019,17.06999969482422,17.170000076293945,16.75,16.81999969482422,969000,16.314544677734375
2/21/2019,17.170000076293945,17.329999923706055,16.709999084472656,16.850000381469727,1038000,16.343645095825195
2/20/2019,17.06999969482422,17.329999923706055,17.049999237060547,17.209999084472656,863500,16.692825317382812
2/19/2019,16.760000228881836,17.34000015258789,16.639999389648438,17.1299991607666,638400,16.6152286529541
2/15/2019,16.770000457763672,17.139999389648438,16.709999084472656,16.8700008392334,725400,16.3630428314209
2/14/2019,16.270000457763672,16.799999237060547,16.270000457763672,16.6299991607666,728200,16.1302547454834
2/13/2019,15.899999618530273,16.399999618530273,15.829999923706055,16.360000610351562,935300,15.868369102478027
2/12/2019,15.899999618530273,16.040000915527344,15.619999885559082,15.84000015258789,683400,15.363995552062988
2/11/2019,15.260000228881836,15.630000114440918,15.170000076293945,15.59000015258789,618500,15.12150764465332
2/8/2019,15.399999618530273,15.539999961853027,14.880000114440918,15.319999694824219,620900,14.859621047973633
2/7/2019,15.880000114440918,16.030000686645508,15.229999542236328,15.449999809265137,1894700,14.98571491241455
2/6/2019,15.920000076293945,16.25,15.890000343322754,16.030000686645508,519600,15.548286437988281
2/5/2019,16.260000228881836,16.450000762939453,15.829999923706055,16,1353100,15.519186973571777
2/4/2019,15.880000114440918,16.399999618530273,15.770000457763672,16.299999237060547,1077600,15.810171127319336
2/1/2019,16.059999465942383,16.260000228881836,15.84000015258789,16.030000686645508,1195900,15.548286437988281
1/31/2019,16.549999237060547,16.579999923706055,15.960000038146973,16.020000457763672,2542500,15.538586616516113
1/30/2019,16.6299991607666,16.649999618530273,16.010000228881836,16.43000030517578,2636400,15.936264991760254
1/29/2019,16.59000015258789,16.809999465942383,16.43000030517578,16.540000915527344,1462400,16.04296112060547
1/28/2019,16.350000381469727,16.56999969482422,16.100000381469727,16.399999618530273,756700,15.907166481018066
1/25/2019,16.459999084472656,16.739999771118164,16.309999465942383,16.56999969482422,514700,16.072057723999023
1/24/2019,16.25,16.360000610351562,15.880000114440918,16.299999237060547,885300,15.810171127319336
1/23/2019,16.809999465942383,16.860000610351562,16.040000915527344,16.239999771118164,791100,15.751974105834961
1/22/2019,17.229999542236328,17.270000457763672,16.56999969482422,16.65999984741211,950500,16.159353256225586
1/18/2019,17.450000762939453,17.469999313354492,17.049999237060547,17.309999465942383,990700,16.789819717407227
1/17/2019,17.170000076293945,17.399999618530273,17.040000915527344,17.25,557300,16.73162269592285
1/16/2019,17.459999084472656,17.68000030517578,17.31999969482422,17.31999969482422,666400,16.79952049255371
1/15/2019,17.049999237060547,17.729999542236328,17.040000915527344,17.639999389648438,874600,17.10990333557129
1/14/2019,16.31999969482422,17.170000076293945,16.270000457763672,16.920000076293945,2237500,16.411540985107422
1/11/2019,16.81999969482422,16.920000076293945,16.56999969482422,16.790000915527344,1064600,16.28544807434082
1/10/2019,16.799999237060547,17.219999313354492,16.649999618530273,16.989999771118164,3245100,16.47943687438965
1/9/2019,16.90999984741211,16.920000076293945,16.469999313354492,16.799999237060547,1278500,16.29514503479004
1/8/2019,16.510000228881836,16.920000076293945,16.299999237060547,16.690000534057617,1217600,16.188451766967773
1/7/2019,15.65999984741211,16.200000762939453,15.489999771118164,16.170000076293945,1566200,15.684078216552734
1/4/2019,14.789999961853027,15.6899995803833,14.600000381469727,15.579999923706055,908700,15.111807823181152
1/3/2019,14.399999618530273,15.180000305175781,14.15999984741211,14.479999542236328,1493600,14.0448637008667
1/2/2019,13.489999771118164,14.4399995803833,13.270000457763672,14.260000228881836,742000,13.831475257873535
12/31/2018,13.699999809265137,13.829999923706055,13.229999542236328,13.779999732971191,588600,13.365899085998535
12/28/2018,13.800000190734863,13.850000381469727,13.239999771118164,13.550000190734863,1107300,13.14281177520752
12/27/2018,13.869999885559082,14.050000190734863,13,13.680000305175781,1205100,13.268904685974121
12/26/2018,13.40999984741211,14.210000038146973,12.859999656677246,14.199999809265137,1373600,13.77327823638916
12/24/2018,14.0600004196167,14.1899995803833,13.210000038146973,13.239999771118164,797600,12.842126846313477
12/21/2018,14.720000267028809,14.920000076293945,14.100000381469727,14.1899995803833,1468400,13.763578414916992
12/20/2018,15.3100004196167,15.699999809265137,14.420000076293945,14.760000228881836,2204100,14.316450119018555
12/19/2018,15.430000305175781,16.030000686645508,15.329999923706055,15.5,1664500,15.034212112426758
12/18/2018,15.65999984741211,15.899999618530273,15.329999923706055,15.369999885559082,1093900,14.908119201660156
12/17/2018,16.1200008392334,16.350000381469727,15.529999732971191,15.6899995803833,2149300,15.218502044677734
12/14/2018,16,16.510000228881836,15.989999771118164,16.170000076293945,1431000,15.684078216552734
12/13/2018,15.609999656677246,16.219999313354492,15.470000267028809,16.200000762939453,1937900,15.713177680969238
12/12/2018,15.729999542236328,15.890000343322754,15.449999809265137,15.630000114440918,1445800,15.160305976867676
12/11/2018,15.640000343322754,15.710000038146973,15.270000457763672,15.489999771118164,1399300,15.02451229095459
12/10/2018,15.949999809265137,16.06999969482422,15.390000343322754,15.399999618530273,1712000,14.937216758728027
12/7/2018,16.270000457763672,16.56999969482422,16.040000915527344,16.18000030517578,1376900,15.693778038024902
12/6/2018,15.949999809265137,16.139999389648438,15.130000114440918,15.779999732971191,1614200,15.305797576904297
12/4/2018,16.969999313354492,17.010000228881836,15.979999542236328,16.270000457763672,1413700,15.781073570251465
12/3/2018,16.579999923706055,17.010000228881836,16.479999542236328,16.950000762939453,1518000,16.44063949584961
11/30/2018,16.09000015258789,16.239999771118164,15.899999618530273,16.229999542236328,1115700,15.74227523803711
11/29/2018,16.049999237060547,16.530000686645508,15.979999542236328,16.280000686645508,1167200,15.790773391723633
11/28/2018,15.850000381469727,16.100000381469727,15.460000038146973,15.970000267028809,880600,15.49008846282959
11/27/2018,16.06999969482422,16.100000381469727,15.670000076293945,15.84000015258789,870300,15.363995552062988
11/26/2018,16.309999465942383,16.31999969482422,16.020000457763672,16.1200008392334,838700,15.635581970214844
11/23/2018,16.450000762939453,16.670000076293945,16.100000381469727,16.1200008392334,472600,15.635581970214844
11/21/2018,16.040000915527344,17.25,16.040000915527344,16.899999618530273,957800,16.392141342163086
11/20/2018,16.149999618530273,16.3799991607666,15.609999656677246,15.760000228881836,1227200,15.286399841308594
11/19/2018,16.65999984741211,17.059999465942383,16.360000610351562,16.459999084472656,1058300,15.965362548828125
11/16/2018,17.06999969482422,17.260000228881836,16.549999237060547,16.809999465942383,923900,16.304845809936523
11/15/2018,17.139999389648438,17.420000076293945,16.979999542236328,17.079999923706055,864200,16.56673240661621
11/14/2018,17.959999084472656,18.190000534057617,17.459999084472656,17.719999313354492,693600,16.729196548461914
11/13/2018,17.93000030517578,18.329999923706055,17.729999542236328,17.760000228881836,1078900,16.7669620513916
11/12/2018,18.3700008392334,18.5,17.989999771118164,18,1319300,16.993541717529297
11/9/2018,18.860000610351562,18.860000610351562,17.969999313354492,18.309999465942383,1281100,17.286209106445312
11/8/2018,20.75,20.75,18.969999313354492,19.06999969482422,1040300,18.003713607788086
11/7/2018,21.139999389648438,21.940000534057617,20.979999542236328,21.010000228881836,1605500,19.835241317749023
11/6/2018,19.6200008392334,19.75,19.260000228881836,19.65999984741211,535800,18.56072425842285
11/5/2018,19.579999923706055,19.709999084472656,19.110000610351562,19.600000381469727,863900,18.504079818725586
11/2/2018,19.59000015258789,19.709999084472656,19.09000015258789,19.31999969482422,583800,18.239734649658203
11/1/2018,18.600000381469727,19.540000915527344,18.510000228881836,19.5,649500,18.409671783447266
10/31/2018,18.760000228881836,19.010000228881836,18.459999084472656,18.489999771118164,739100,17.456144332885742
10/30/2018,18.360000610351562,18.770000457763672,18.18000030517578,18.5,599400,17.46558380126953
10/29/2018,18.799999237060547,19.09000015258789,18.229999542236328,18.5,577700,17.46558380126953
10/26/2018,18.940000534057617,19.049999237060547,18.260000228881836,18.639999389648438,509300,17.59775733947754
10/25/2018,19.170000076293945,19.459999084472656,18.959999084472656,19.139999389648438,612300,18.069799423217773
10/24/2018,20,20.149999618530273,18.8700008392334,18.8799991607666,1166000,17.824337005615234
10/23/2018,20.270000457763672,20.270000457763672,19.34000015258789,19.950000762939453,649400,18.834510803222656
10/22/2018,21.110000610351562,21.239999771118164,20.520000457763672,20.68000030517578,452100,19.523693084716797
10/19/2018,21.030000686645508,21.489999771118164,20.959999084472656,21.09000015258789,521800,19.9107666015625
10/18/2018,21.100000381469727,21.520000457763672,20.920000076293945,21.040000915527344,484200,19.863563537597656
10/17/2018,21.389999389648438,21.5,21.1299991607666,21.25,439800,20.06182098388672
10/16/2018,20.799999237060547,21.469999313354492,20.68000030517578,21.43000030517578,451800,20.23175621032715
10/15/2018,20.8799991607666,21.100000381469727,20.579999923706055,20.829999923706055,359900,19.66530418395996
10/12/2018,20.950000762939453,21.06999969482422,20.34000015258789,20.81999969482422,764000,19.65586280822754
10/11/2018,20.899999618530273,21.149999618530273,20.559999465942383,20.690000534057617,684300,19.533132553100586
10/10/2018,21.40999984741211,21.719999313354492,21,21.010000228881836,859100,19.835241317749023
10/9/2018,21.1200008392334,21.809999465942383,20.799999237060547,21.420000076293945,846200,20.22231674194336
10/8/2018,21.8799991607666,22.049999237060547,21.6200008392334,21.899999618530273,717300,20.67547607421875
10/5/2018,22.049999237060547,22.25,21.8700008392334,22,817100,20.769886016845703
10/4/2018,22.139999389648438,22.299999237060547,21.889999389648438,22,552900,20.769886016845703
10/3/2018,22.309999465942383,22.520000457763672,22.110000610351562,22.219999313354492,1040500,20.977584838867188
10/2/2018,22.600000381469727,22.739999771118164,22.079999923706055,22.229999542236328,1072600,20.987024307250977
10/1/2018,22.170000076293945,22.959999084472656,22.09000015258789,22.760000228881836,691100,21.487390518188477
9/28/2018,22,22.399999618530273,21.700000762939453,22.049999237060547,890300,20.817089080810547
9/27/2018,21.75,22.149999618530273,21.479999542236328,22.049999237060547,1894200,20.817089080810547
9/26/2018,21.5,21.799999237060547,21.299999237060547,21.549999237060547,853100,20.345046997070312
9/25/2018,21.100000381469727,21.600000381469727,20.850000381469727,21.5,1103300,20.297842025756836
9/24/2018,21.950000762939453,22.100000381469727,20.899999618530273,21,911600,19.8257999420166
9/21/2018,22.350000381469727,22.5,21.799999237060547,21.899999618530273,1345800,20.67547607421875
9/20/2018,22.549999237060547,22.649999618530273,22.25,22.299999237060547,408100,21.053110122680664
9/19/2018,23.149999618530273,23.350000381469727,22.40999984741211,22.450000762939453,653800,21.194725036621094
9/18/2018,23.149999618530273,23.5,23,23.049999237060547,713800,21.76117515563965
9/17/2018,23.25,23.799999237060547,22.979999542236328,23.049999237060547,734800,21.76117515563965
9/14/2018,23.450000762939453,23.5,22.950000762939453,23.200000762939453,830500,21.902788162231445
9/13/2018,23.75,23.799999237060547,23.049999237060547,23.399999618530273,1337300,22.091604232788086
9/12/2018,24.200000762939453,24.299999237060547,23.950000762939453,24.049999237060547,463300,22.705259323120117
9/11/2018,23.600000381469727,24.229999542236328,23.600000381469727,24,571200,22.658056259155273
9/10/2018,23.899999618530273,24.25,23.5,23.649999618530273,436600,22.327627182006836
9/7/2018,23.649999618530273,23.850000381469727,23.450000762939453,23.75,466100,22.422035217285156
9/6/2018,24.049999237060547,24.200000762939453,23.75,23.75,513900,22.422035217285156
9/5/2018,24,24.079999923706055,23.479999542236328,24,352500,22.658056259155273
9/4/2018,24.299999237060547,24.450000762939453,23.799999237060547,24.100000381469727,420600,22.752466201782227
8/31/2018,24.299999237060547,24.5,23.850000381469727,24.200000762939453,488900,22.846874237060547
8/30/2018,25.049999237060547,25.049999237060547,24.399999618530273,24.450000762939453,475900,23.082895278930664
8/29/2018,25.5,25.5,25.100000381469727,25.100000381469727,529200,23.696550369262695
8/28/2018,25.600000381469727,26.049999237060547,25.25,25.399999618530273,479700,23.97977638244629
8/27/2018,25.700000762939453,25.899999618530273,25.450000762939453,25.600000381469727,493900,24.168594360351562
8/24/2018,26,26.049999237060547,25.600000381469727,25.700000762939453,598300,24.263002395629883
8/23/2018,25.450000762939453,25.8799991607666,25.350000381469727,25.700000762939453,577600,24.263002395629883
8/22/2018,25.399999618530273,25.799999237060547,25.399999618530273,25.600000381469727,444100,24.168594360351562
8/21/2018,25.5,25.75,25.200000762939453,25.299999237060547,725900,23.885366439819336
8/20/2018,24.5,25.350000381469727,24.5,25.25,677100,23.838163375854492
8/17/2018,24.399999618530273,24.600000381469727,24.049999237060547,24.5,424600,23.13010025024414
8/16/2018,24.549999237060547,25.100000381469727,24.549999237060547,24.799999237060547,507200,22.967243194580078
8/15/2018,24.5,24.700000762939453,23.850000381469727,24.450000762939453,650000,22.643110275268555
8/14/2018,24.600000381469727,24.950000762939453,24.450000762939453,24.850000381469727,547700,23.0135498046875
8/13/2018,25.799999237060547,26,24.399999618530273,24.450000762939453,712900,22.643110275268555
8/10/2018,25.450000762939453,26.149999618530273,25.3799991607666,25.899999618530273,1091000,23.985950469970703
8/9/2018,25.149999618530273,26.790000915527344,24.75,25.649999618530273,861400,23.754426956176758
8/8/2018,25.700000762939453,26.079999923706055,25.600000381469727,25.700000762939453,483800,23.80073356628418
8/7/2018,26.049999237060547,26.149999618530273,25.600000381469727,25.799999237060547,503800,23.893341064453125
8/6/2018,25.649999618530273,25.899999618530273,25.399999618530273,25.850000381469727,568800,23.939647674560547
8/3/2018,26.049999237060547,26.530000686645508,25.549999237060547,25.649999618530273,428500,23.754426956176758
8/2/2018,25.049999237060547,26.149999618530273,24.799999237060547,26,1220300,24.078561782836914
8/1/2018,25,25.600000381469727,24.700000762939453,25.200000762939453,871200,23.337682723999023
7/31/2018,25.149999618530273,25.25,24.700000762939453,25.149999618530273,575500,23.291379928588867
7/30/2018,25.100000381469727,25.25,24.799999237060547,25.049999237060547,472100,23.198768615722656
7/27/2018,25.299999237060547,26,24.600000381469727,24.799999237060547,920000,22.967243194580078
7/26/2018,25.100000381469727,25.68000030517578,25.100000381469727,25.399999618530273,652100,23.522903442382812
7/25/2018,24.25,25.149999618530273,24.149999618530273,25.100000381469727,984500,23.245073318481445
7/24/2018,24.700000762939453,25.030000686645508,24.149999618530273,24.25,791500,22.457889556884766
7/23/2018,24.649999618530273,24.899999618530273,24.450000762939453,24.450000762939453,1423000,22.643110275268555
7/20/2018,24.75,24.75,24.450000762939453,24.450000762939453,501800,22.643110275268555
7/19/2018,24.200000762939453,24.979999542236328,23.950000762939453,24.649999618530273,657900,22.828327178955078
7/18/2018,23.649999618530273,24.100000381469727,23.299999237060547,24,439800,22.226364135742188
7/17/2018,24.100000381469727,24.350000381469727,23.6299991607666,23.649999618530273,677800,21.902231216430664
7/16/2018,24.149999618530273,24.25,23.850000381469727,24.200000762939453,424000,22.411584854125977
7/13/2018,24.350000381469727,24.700000762939453,24.18000030517578,24.299999237060547,578800,22.504194259643555
7/12/2018,24.700000762939453,24.700000762939453,23.829999923706055,24.350000381469727,572500,22.550500869750977
7/11/2018,25.200000762939453,25.700000762939453,24.5,24.600000381469727,962500,22.782024383544922
7/10/2018,25.850000381469727,26.100000381469727,25.350000381469727,25.5,540600,23.61551284790039
7/9/2018,25.950000762939453,26.049999237060547,25.479999542236328,25.700000762939453,659300,23.80073356628418
7/6/2018,25.549999237060547,26.049999237060547,25.549999237060547,25.850000381469727,512000,23.939647674560547
7/5/2018,25.25,25.850000381469727,25.25,25.799999237060547,572000,23.893341064453125
7/3/2018,25.299999237060547,25.700000762939453,24.979999542236328,25.049999237060547,245200,23.198768615722656
7/2/2018,25.25,25.399999618530273,24.649999618530273,25.049999237060547,354500,23.198768615722656
6/29/2018,25.399999618530273,25.700000762939453,25.219999313354492,25.399999618530273,530600,23.522903442382812
6/28/2018,25.049999237060547,25.5,24.549999237060547,25.299999237060547,533800,23.4302921295166
6/27/2018,25.5,25.93000030517578,24.850000381469727,24.899999618530273,792500,23.05985450744629
6/26/2018,24.700000762939453,25.299999237060547,24.25,25.299999237060547,699300,23.4302921295166
6/25/2018,24.700000762939453,25,24.200000762939453,24.649999618530273,948200,22.828327178955078
6/22/2018,25.25,25.799999237060547,24.399999618530273,24.899999618530273,2514000,23.05985450744629
6/21/2018,25.049999237060547,25.299999237060547,24.850000381469727,24.899999618530273,902100,23.05985450744629
6/20/2018,25.350000381469727,25.450000762939453,25,25.200000762939453,617300,23.337682723999023
6/19/2018,24.549999237060547,25.149999618530273,24.549999237060547,25,663300,23.152463912963867
6/18/2018,24.299999237060547,25,23.950000762939453,24.950000762939453,806400,23.10616111755371
6/15/2018,24.899999618530273,24.899999618530273,24.049999237060547,24.299999237060547,732200,22.504194259643555
6/14/2018,24.950000762939453,25.200000762939453,24.549999237060547,25,713700,23.152463912963867
6/13/2018,25,25,24.549999237060547,24.799999237060547,669400,22.967243194580078
6/12/2018,25.100000381469727,25.350000381469727,24.850000381469727,25,965100,23.152463912963867
6/11/2018,24.350000381469727,25.350000381469727,24,25.149999618530273,661600,23.291379928588867
6/8/2018,25.350000381469727,25.549999237060547,24.8799991607666,25,461700,23.152463912963867
6/7/2018,25.049999237060547,25.549999237060547,24.950000762939453,25.399999618530273,679800,23.522903442382812
6/6/2018,25.649999618530273,25.799999237060547,25,25,438700,23.152463912963867
6/5/2018,25.299999237060547,25.799999237060547,25.299999237060547,25.649999618530273,422300,23.754426956176758
6/4/2018,26,26.030000686645508,25.299999237060547,25.350000381469727,491600,23.476598739624023
6/1/2018,25.450000762939453,26.399999618530273,25.450000762939453,25.799999237060547,1095000,23.893341064453125
5/31/2018,25.299999237060547,25.799999237060547,25.200000762939453,25.299999237060547,666300,23.4302921295166
5/30/2018,24.799999237060547,25.700000762939453,24.549999237060547,25.5,855800,23.61551284790039
5/29/2018,23.850000381469727,24.600000381469727,23.850000381469727,24.549999237060547,642300,22.7357177734375
5/25/2018,24.049999237060547,24.200000762939453,23.399999618530273,24.049999237060547,657600,22.272668838500977
5/24/2018,25,25,24.5,24.600000381469727,566800,22.782024383544922
5/23/2018,25.200000762939453,25.399999618530273,24.969999313354492,25.200000762939453,484700,23.337682723999023
5/22/2018,26.200000762939453,26.350000381469727,25.43000030517578,25.450000762939453,602900,23.5692081451416
5/21/2018,26.200000762939453,26.200000762939453,25.68000030517578,26.100000381469727,470300,24.171173095703125
5/18/2018,26.049999237060547,26.049999237060547,25.700000762939453,26,556100,24.078561782836914
5/17/2018,25.600000381469727,26.149999618530273,25.399999618530273,26,796100,24.078561782836914
5/16/2018,25.299999237060547,25.549999237060547,25.100000381469727,25.450000762939453,564700,23.5692081451416
5/15/2018,25.600000381469727,25.649999618530273,25.149999618530273,25.299999237060547,904100,23.4302921295166
5/14/2018,25.25,26.200000762939453,25.25,26.100000381469727,902000,23.733592987060547
5/11/2018,25.700000762939453,25.850000381469727,25,25.200000762939453,642400,22.915191650390625
5/10/2018,25.350000381469727,25.850000381469727,25.149999618530273,25.649999618530273,786000,23.32438850402832
5/9/2018,23.700000762939453,25.299999237060547,22.5,25.149999618530273,1540600,22.869726181030273
5/8/2018,24,24.5,23.549999237060547,24.200000762939453,928800,22.005857467651367
5/7/2018,23.899999618530273,24.700000762939453,23.75,24,1258800,21.823991775512695
5/4/2018,23.600000381469727,24.1299991607666,23.5,23.700000762939453,1228000,21.551193237304688
5/3/2018,24.649999618530273,24.899999618530273,23.649999618530273,23.75,764200,21.59665870666504
5/2/2018,24.649999618530273,24.950000762939453,24.600000381469727,24.700000762939453,994300,22.460527420043945
5/1/2018,25.100000381469727,25.100000381469727,24.399999618530273,24.649999618530273,882500,22.415056228637695
4/30/2018,24.5,25.299999237060547,24.5,25.149999618530273,860000,22.869726181030273
4/27/2018,24.600000381469727,25,24.350000381469727,24.649999618530273,583000,22.415056228637695
4/26/2018,24.299999237060547,24.700000762939453,23.899999618530273,24.549999237060547,488400,22.32412338256836
4/25/2018,23.600000381469727,24.049999237060547,23.25,24.049999237060547,553100,21.86945915222168
4/24/2018,24.350000381469727,24.799999237060547,23.530000686645508,23.649999618530273,638600,21.505725860595703
4/23/2018,24.299999237060547,24.399999618530273,23.760000228881836,24.350000381469727,1020500,22.142257690429688
4/20/2018,24.5,24.75,24.049999237060547,24.350000381469727,499700,22.142257690429688
4/19/2018,24.700000762939453,25.149999618530273,24.350000381469727,24.549999237060547,895000,22.32412338256836
4/18/2018,24.049999237060547,24.700000762939453,23.899999618530273,24.600000381469727,820800,22.369592666625977
4/17/2018,23.649999618530273,24.450000762939453,23.600000381469727,23.799999237060547,874200,21.64212417602539
4/16/2018,22.850000381469727,24.100000381469727,22.5,23.950000762939453,741700,21.778526306152344
4/13/2018,22.649999618530273,23.030000686645508,22.5,22.799999237060547,678100,20.7327938079834
4/12/2018,22.799999237060547,23,22.549999237060547,22.700000762939453,1225100,20.64185905456543
4/11/2018,22.600000381469727,23.100000381469727,22.600000381469727,22.799999237060547,916600,20.7327938079834
4/10/2018,22.399999618530273,23.18000030517578,22.200000762939453,22.600000381469727,1260300,20.550926208496094
4/9/2018,22.450000762939453,22.649999618530273,21.950000762939453,22,694000,20.005327224731445
4/6/2018,22.5,22.850000381469727,21.850000381469727,22.149999618530273,913100,20.141725540161133
4/5/2018,22,23.030000686645508,22,22.75,967200,20.687326431274414
4/4/2018,20.850000381469727,22.030000686645508,20.600000381469727,21.899999618530273,1010800,19.914390563964844
4/3/2018,21.350000381469727,21.399999618530273,20.450000762939453,21.25,1077100,19.323326110839844
4/2/2018,21.25,21.75,21.049999237060547,21.350000381469727,937400,19.414260864257812
3/29/2018,20.600000381469727,21.729999542236328,20.299999237060547,21.399999618530273,1297900,19.459726333618164
3/28/2018,20.799999237060547,21,20.200000762939453,20.450000762939453,882800,18.59585952758789
3/27/2018,21.25,21.729999542236328,20.729999542236328,20.950000762939453,674300,19.050527572631836
3/26/2018,21.600000381469727,21.700000762939453,20.5,21.100000381469727,838400,19.186927795410156
3/23/2018,22.149999618530273,22.149999618530273,21.299999237060547,21.299999237060547,763100,19.368793487548828
3/22/2018,22.5,22.799999237060547,22,22.049999237060547,804700,20.050790786743164
3/21/2018,22.049999237060547,22.899999618530273,21.799999237060547,22.799999237060547,932500,20.7327938079834
3/20/2018,22,22.25,21.549999237060547,21.799999237060547,1035200,19.823457717895508
3/19/2018,22.25,22.25,21.25,21.799999237060547,1370500,19.823457717895508
3/16/2018,22.049999237060547,22.799999237060547,21.700000762939453,22.399999618530273,1199600,20.36905860900879
3/15/2018,22.649999618530273,22.75,20.950000762939453,21.899999618530273,1423600,19.914390563964844
3/14/2018,22.850000381469727,22.899999618530273,22.299999237060547,22.450000762939453,701300,20.414527893066406
3/13/2018,23.100000381469727,23.299999237060547,22.399999618530273,22.649999618530273,927500,20.596393585205078
3/12/2018,22.399999618530273,23.149999618530273,22.399999618530273,22.950000762939453,1194500,20.869192123413086
3/9/2018,21.600000381469727,22.450000762939453,21.450000762939453,22.299999237060547,914900,20.278125762939453
3/8/2018,21,21.479999542236328,20.950000762939453,21.350000381469727,1101500,19.414260864257812
3/7/2018,21.700000762939453,22.200000762939453,21,21.450000762939453,1392600,19.075532913208008
3/6/2018,22.549999237060547,22.75,21.850000381469727,21.950000762939453,1151600,19.520185470581055
3/5/2018,22.200000762939453,22.829999923706055,21.899999618530273,22.450000762939453,1318200,19.96483612060547
3/2/2018,22.25,22.450000762939453,21.600000381469727,22.399999618530273,1305200,19.92037010192871
3/1/2018,22.049999237060547,22.780000686645508,21.850000381469727,22.399999618530273,1910600,19.92037010192871
2/28/2018,23.149999618530273,23.299999237060547,22.149999618530273,22.200000762939453,1654400,19.742511749267578
2/27/2018,23.299999237060547,23.600000381469727,22.700000762939453,23.100000381469727,1477600,20.54288101196289
2/26/2018,24.149999618530273,24.75,22.600000381469727,23.25,3933400,20.67627716064453
2/23/2018,24.350000381469727,25.5,24.350000381469727,25.5,2024900,22.67720603942871
2/22/2018,26.850000381469727,27.049999237060547,23.899999618530273,24,3134400,21.343252182006836
2/21/2018,27.100000381469727,27.200000762939453,26.43000030517578,26.649999618530273,889900,23.69990348815918
2/20/2018,27.100000381469727,27.549999237060547,26.850000381469727,27.049999237060547,737000,24.05562400817871
2/16/2018,27.350000381469727,28,26.950000762939453,27.100000381469727,781800,24.1000919342041
2/15/2018,27.299999237060547,27.780000686645508,26.899999618530273,27.5,722300,24.455812454223633
2/14/2018,26.200000762939453,27.149999618530273,25.899999618530273,27.049999237060547,540900,24.05562400817871
2/13/2018,26.049999237060547,26.649999618530273,26.049999237060547,26.600000381469727,556000,23.655439376831055
2/12/2018,25.850000381469727,26.399999618530273,25.299999237060547,26.25,1092800,23.34418487548828
2/9/2018,26.549999237060547,26.75,24.700000762939453,25.399999618530273,1535100,22.58827781677246
2/8/2018,27.700000762939453,27.799999237060547,26.149999618530273,26.149999618530273,842400,23.255250930786133
2/7/2018,27.450000762939453,27.950000762939453,27.079999923706055,27.549999237060547,698600,24.500274658203125
2/6/2018,25.649999618530273,27.6299991607666,25.549999237060547,27.5,1133800,24.455812454223633
2/5/2018,27.299999237060547,27.75,26.149999618530273,26.399999618530273,936100,23.47757911682129
2/2/2018,28.700000762939453,28.700000762939453,27.600000381469727,27.649999618530273,677900,24.589204788208008
2/1/2018,28.5,29.100000381469727,28.25,29.049999237060547,616200,25.834230422973633
1/31/2018,29.200000762939453,29.549999237060547,28.350000381469727,28.649999618530273,753600,25.47850799560547
1/30/2018,29.399999618530273,29.5,28.850000381469727,29.149999618530273,811400,25.923160552978516
1/29/2018,29.899999618530273,29.950000762939453,29.299999237060547,29.799999237060547,858300,26.50120735168457
1/26/2018,30,30.350000381469727,29.700000762939453,30.100000381469727,908600,26.76799774169922
1/25/2018,29.75,30.049999237060547,29.350000381469727,29.799999237060547,680700,26.50120735168457
1/24/2018,29.75,30.049999237060547,29.450000762939453,29.5,1006100,26.234416961669922
1/23/2018,29.450000762939453,29.850000381469727,28.899999618530273,29.700000762939453,837300,26.412277221679688
1/22/2018,29.600000381469727,30.100000381469727,29.299999237060547,29.350000381469727,1115700,26.10102081298828
1/19/2018,28.700000762939453,29.549999237060547,28.200000762939453,29.549999237060547,813100,26.278881072998047
1/18/2018,29,29.350000381469727,28.649999618530273,28.899999618530273,940800,25.70083236694336
1/17/2018,29.299999237060547,29.299999237060547,28.200000762939453,29.100000381469727,1164800,25.878694534301758
1/16/2018,29.350000381469727,29.950000762939453,28.93000030517578,29,832300,25.789764404296875
1/12/2018,28.850000381469727,29.280000686645508,28.600000381469727,29.25,757200,26.012088775634766
1/11/2018,27.899999618530273,28.75,27.700000762939453,28.700000762939453,1094200,25.522974014282227
1/10/2018,28.350000381469727,28.350000381469727,27.5,27.649999618530273,1292800,24.589204788208008
1/9/2018,28.799999237060547,28.899999618530273,28,28.299999237060547,659900,25.167253494262695
1/8/2018,27.850000381469727,28.850000381469727,27.850000381469727,28.75,1185200,25.56743812561035
1/5/2018,29.299999237060547,29.350000381469727,27.549999237060547,27.899999618530273,1794800,24.811532974243164
1/4/2018,30.399999618530273,30.649999618530273,29.649999618530273,29.799999237060547,1233200,26.50120735168457
1/3/2018,30.799999237060547,30.950000762939453,30.329999923706055,30.5,1159000,27.123720169067383
1/2/2018,30.399999618530273,30.799999237060547,29.700000762939453,30.799999237060547,1243900,27.3905086517334
12/29/2017,30.049999237060547,30.600000381469727,29.899999618530273,30.200000762939453,812500,26.85692596435547
12/28/2017,29.75,30.149999618530273,29.600000381469727,30,582600,26.679067611694336
12/27/2017,29.850000381469727,29.899999618530273,29.450000762939453,29.75,538100,26.45673942565918
12/26/2017,29.450000762939453,30.049999237060547,29.25,29.899999618530273,661700,26.590137481689453
12/22/2017,29.049999237060547,29.299999237060547,28.649999618530273,29.200000762939453,864800,25.967626571655273
12/21/2017,28.850000381469727,29.43000030517578,28.700000762939453,28.950000762939453,1048100,25.745302200317383
12/20/2017,28.549999237060547,28.899999618530273,28.299999237060547,28.75,1631700,25.56743812561035
12/19/2017,28.700000762939453,29.049999237060547,28.200000762939453,28.450000762939453,1479300,25.300649642944336
12/18/2017,28.100000381469727,28.799999237060547,28,28.450000762939453,1322800,25.300649642944336
12/15/2017,28,28.25,27.649999618530273,27.799999237060547,2140100,24.72260284423828
12/14/2017,27.600000381469727,28.700000762939453,27.600000381469727,27.950000762939453,2079300,24.855998992919922
12/13/2017,27.100000381469727,27.549999237060547,26.8799991607666,27.350000381469727,1059100,24.322418212890625
12/12/2017,26.549999237060547,27.350000381469727,26.200000762939453,27.149999618530273,1144400,24.144554138183594
12/11/2017,25.799999237060547,26.799999237060547,25.649999618530273,26.399999618530273,1280400,23.47757911682129
12/8/2017,25.399999618530273,26,24.899999618530273,25.75,1666000,22.899534225463867
12/7/2017,24.350000381469727,25.299999237060547,24.350000381469727,25.200000762939453,1085800,22.410417556762695
12/6/2017,24.850000381469727,24.899999618530273,24.149999618530273,24.450000762939453,833200,21.743438720703125
12/5/2017,25.450000762939453,25.549999237060547,24.700000762939453,25,800100,22.232555389404297
12/4/2017,24.75,25.700000762939453,24.649999618530273,25.25,1093900,22.45488166809082
12/1/2017,24.149999618530273,24.93000030517578,24.149999618530273,24.649999618530273,1173400,21.92129898071289
11/30/2017,23,24,22.649999618530273,24,1354100,21.343252182006836
11/29/2017,22.399999618530273,23.299999237060547,22.399999618530273,22.700000762939453,942100,20.18716049194336
11/28/2017,22.399999618530273,22.649999618530273,22.200000762939453,22.549999237060547,868300,20.053762435913086
11/27/2017,22.950000762939453,22.950000762939453,22.149999618530273,22.450000762939453,1148900,19.96483612060547
11/24/2017,23.200000762939453,23.450000762939453,22.899999618530273,23.049999237060547,730600,20.498416900634766
11/22/2017,22.700000762939453,23.899999618530273,22.549999237060547,23.200000762939453,1092400,20.631811141967773
11/21/2017,22.950000762939453,23.5,22.549999237060547,22.700000762939453,1572200,20.18716049194336
11/20/2017,22.399999618530273,23.100000381469727,22.049999237060547,22.850000381469727,1137900,20.320556640625
11/17/2017,22.399999618530273,22.600000381469727,21.350000381469727,22.5,1339600,20.00929832458496
11/16/2017,22.5,23.200000762939453,21.950000762939453,22.899999618530273,1742300,19.9648380279541
11/15/2017,22.450000762939453,22.75,22.149999618530273,22.399999618530273,1294500,19.52892303466797
11/14/2017,23.149999618530273,23.350000381469727,22.649999618530273,22.850000381469727,1593700,19.921245574951172
11/13/2017,24.5,24.75,23.350000381469727,23.399999618530273,1629200,20.40074920654297
11/10/2017,25.299999237060547,25.600000381469727,24.850000381469727,25.049999237060547,835300,21.83926010131836
11/9/2017,25,25.649999618530273,23.299999237060547,25.450000762939453,1714800,22.1879940032959
11/8/2017,26.549999237060547,26.799999237060547,25.850000381469727,25.899999618530273,585500,22.5803165435791
11/7/2017,26.549999237060547,27.049999237060547,25.700000762939453,26.700000762939453,811000,23.277780532836914
11/6/2017,26.799999237060547,26.850000381469727,26.049999237060547,26.350000381469727,1155800,22.972639083862305
11/3/2017,26.649999618530273,26.75,26.049999237060547,26.549999237060547,517900,23.147001266479492
11/2/2017,26.850000381469727,27.25,26.25,26.700000762939453,587000,23.277780532836914
11/1/2017,26.350000381469727,27.200000762939453,26.25,26.950000762939453,788300,23.49573516845703
10/31/2017,26.100000381469727,26.149999618530273,25.700000762939453,26.049999237060547,451400,22.711088180541992
10/30/2017,25.75,26.450000762939453,25.600000381469727,26,663100,22.667497634887695
10/27/2017,25.149999618530273,26.049999237060547,25,25.75,582500,22.449542999267578
10/26/2017,24.950000762939453,25.450000762939453,24.75,25.149999618530273,326000,21.92644691467285
10/25/2017,25.799999237060547,26.049999237060547,24.75,25.049999237060547,702700,21.83926010131836
10/24/2017,26,26.200000762939453,25.600000381469727,25.850000381469727,606200,22.536727905273438
10/23/2017,26.549999237060547,26.649999618530273,25.6299991607666,25.75,707600,22.449542999267578
10/20/2017,26.950000762939453,27,26.399999618530273,26.600000381469727,401800,23.190595626831055
10/19/2017,26.75,27,26.5,26.850000381469727,343700,23.408554077148438
10/18/2017,27.25,27.3799991607666,26.649999618530273,26.950000762939453,620000,23.49573516845703
10/17/2017,27.700000762939453,27.899999618530273,26.799999237060547,27.100000381469727,782000,23.626508712768555
10/16/2017,28.75,28.950000762939453,27.700000762939453,27.899999618530273,647700,24.3239688873291
10/13/2017,29.149999618530273,29.399999618530273,28.649999618530273,28.700000762939453,264100,25.02143096923828
10/12/2017,28.75,29.100000381469727,28.600000381469727,28.799999237060547,508600,25.108613967895508
10/11/2017,29,29.25,28.850000381469727,29.049999237060547,308700,25.32657241821289
10/10/2017,29.149999618530273,29.350000381469727,28.850000381469727,29,500900,25.28297996520996
10/9/2017,28.75,29.049999237060547,28.549999237060547,28.700000762939453,433600,25.02143096923828
10/6/2017,28.399999618530273,28.899999618530273,28.100000381469727,28.649999618530273,433900,24.97783851623535
10/5/2017,28.399999618530273,28.799999237060547,28.25,28.700000762939453,859400,25.02143096923828
10/4/2017,29.350000381469727,29.5,28.350000381469727,28.350000381469727,668200,24.716291427612305
10/3/2017,28.649999618530273,29.399999618530273,28.549999237060547,29.299999237060547,488400,25.544527053833008
10/2/2017,28.399999618530273,28.799999237060547,28.25,28.75,672700,25.06502342224121
9/29/2017,28.950000762939453,29.049999237060547,28.530000686645508,28.75,917000,25.06502342224121
9/28/2017,28.899999618530273,28.950000762939453,28.200000762939453,28.950000762939453,603200,25.239389419555664
9/27/2017,28.5,28.899999618530273,28.049999237060547,28.850000381469727,610300,25.152206420898438
9/26/2017,28.149999618530273,28.649999618530273,28,28.5,487700,24.847064971923828
9/25/2017,28,28.899999618530273,27.899999618530273,28.350000381469727,1435400,24.716291427612305
9/22/2017,26.700000762939453,27.600000381469727,26.450000762939453,27.600000381469727,886900,24.062421798706055
9/21/2017,26.75,27.049999237060547,26.530000686645508,26.700000762939453,655800,23.277780532836914
9/20/2017,27.299999237060547,27.350000381469727,26.5,26.799999237060547,1120200,23.364957809448242
9/19/2017,27.799999237060547,27.850000381469727,27.049999237060547,27.25,852700,23.75728416442871
9/18/2017,27.5,27.899999618530273,27.5,27.75,722200,24.19319725036621
9/15/2017,28,28,27.350000381469727,27.649999618530273,1896500,24.10601043701172
9/14/2017,27.350000381469727,28.049999237060547,27.350000381469727,27.899999618530273,1100900,24.3239688873291
9/13/2017,26.75,27.5,26.75,27.299999237060547,903900,23.800872802734375
9/12/2017,25.899999618530273,27.149999618530273,25.899999618530273,26.700000762939453,1055900,23.277780532836914
9/11/2017,26.100000381469727,26.450000762939453,25.899999618530273,25.950000762939453,669500,22.6239070892334
9/8/2017,26.5,26.600000381469727,25.549999237060547,26.100000381469727,663500,22.754682540893555
9/7/2017,26.450000762939453,26.93000030517578,26.280000686645508,26.649999618530273,1424400,23.23418426513672
9/6/2017,26.049999237060547,26.75,25.950000762939453,26.5,1514200,23.103412628173828
9/5/2017,25.399999618530273,25.950000762939453,25.200000762939453,25.899999618530273,1077000,22.5803165435791
9/1/2017,25.649999618530273,25.700000762939453,25,25.049999237060547,1012200,21.83926010131836
8/31/2017,25.450000762939453,25.75,25.200000762939453,25.700000762939453,945200,22.40595054626465
8/30/2017,25.25,25.5,24.8799991607666,25.200000762939453,1040000,21.97003746032715
8/29/2017,24.5,25.399999618530273,24.149999618530273,25.399999618530273,1024500,22.144405364990234
8/28/2017,24.75,25,24.450000762939453,24.600000381469727,967700,21.44693946838379
8/25/2017,24.799999237060547,25,24.600000381469727,24.649999618530273,920600,21.49053192138672
8/24/2017,24.850000381469727,25.100000381469727,24.5,24.649999618530273,683400,21.49053192138672
8/23/2017,24.100000381469727,25,23.899999618530273,24.950000762939453,944400,21.75208282470703
8/22/2017,23.399999618530273,24.399999618530273,23.18000030517578,24.149999618530273,1362400,21.05461883544922
8/21/2017,23.299999237060547,23.5,22.850000381469727,23.350000381469727,1279900,20.357158660888672
8/18/2017,22.799999237060547,23.5,22.649999618530273,23.350000381469727,884400,20.357158660888672
8/17/2017,22.600000381469727,23.350000381469727,22.600000381469727,22.950000762939453,883900,20.008426666259766
8/16/2017,23.149999618530273,23.5,22.649999618530273,22.75,627400,19.834060668945312
8/15/2017,23.5,23.700000762939453,23.350000381469727,23.600000381469727,662100,20.182790756225586
8/14/2017,23.799999237060547,24.149999618530273,23.549999237060547,23.799999237060547,449100,20.353832244873047
8/11/2017,23.299999237060547,23.950000762939453,23.299999237060547,23.75,1255800,20.311073303222656
8/10/2017,24.299999237060547,24.700000762939453,23.700000762939453,23.850000381469727,1283200,20.396595001220703
8/9/2017,24.899999618530273,25.25,24.100000381469727,24.149999618530273,1698000,20.653152465820312
8/8/2017,25.100000381469727,25.850000381469727,24.649999618530273,24.700000762939453,1089000,21.123516082763672
8/7/2017,26.5,27.299999237060547,24.479999542236328,25.25,1234800,21.5938777923584
8/4/2017,25.700000762939453,25.899999618530273,25.25,25.5,964600,21.807676315307617
8/3/2017,26.450000762939453,26.450000762939453,25.450000762939453,25.600000381469727,737300,21.893199920654297
8/2/2017,26.350000381469727,26.700000762939453,26.049999237060547,26.350000381469727,705800,22.53459930419922
8/1/2017,27.049999237060547,27.25,26.549999237060547,26.649999618530273,676000,22.791160583496094
7/31/2017,27.149999618530273,27.149999618530273,26.149999618530273,27.049999237060547,786400,23.133241653442383
7/28/2017,27.049999237060547,27.530000686645508,26.600000381469727,27.049999237060547,929300,23.133241653442383
7/27/2017,26.350000381469727,27.200000762939453,25.899999618530273,27.049999237060547,994000,23.133241653442383
7/26/2017,26.649999618530273,26.75,26.200000762939453,26.25,745200,22.449079513549805
7/25/2017,26.649999618530273,27,26.299999237060547,26.450000762939453,718800,22.620121002197266
7/24/2017,26.149999618530273,26.25,25.700000762939453,26.149999618530273,488300,22.363561630249023
7/21/2017,26.350000381469727,27.100000381469727,25.6299991607666,26.100000381469727,804700,22.320798873901367
7/20/2017,26.600000381469727,26.950000762939453,26.149999618530273,26.25,778100,22.449079513549805
7/19/2017,26.450000762939453,26.799999237060547,26.149999618530273,26.350000381469727,1187800,22.53459930419922
7/18/2017,26.25,26.549999237060547,26,26.450000762939453,710200,22.620121002197266
7/17/2017,26.5,27.100000381469727,25.93000030517578,26.100000381469727,1644900,22.320798873901367
7/14/2017,26.649999618530273,27.299999237060547,26.450000762939453,27.200000762939453,1285600,23.26152229309082
7/13/2017,26.149999618530273,26.5,25.600000381469727,26.5,1099200,22.662883758544922
7/12/2017,26.149999618530273,26.450000762939453,25.799999237060547,26,737000,22.235279083251953
7/11/2017,25.75,25.799999237060547,25.1299991607666,25.700000762939453,611400,21.978715896606445
7/10/2017,25.299999237060547,25.700000762939453,25.149999618530273,25.399999618530273,652700,21.722156524658203
7/7/2017,25.450000762939453,25.5,24.75,25.450000762939453,566500,21.76491928100586
7/6/2017,26.299999237060547,26.450000762939453,25.5,25.700000762939453,1102100,21.978715896606445
7/5/2017,27.100000381469727,27.100000381469727,25.600000381469727,26.049999237060547,876800,22.278038024902344
7/3/2017,27.149999618530273,27.549999237060547,27,27.200000762939453,354000,23.26152229309082
6/30/2017,26.850000381469727,27.549999237060547,26.68000030517578,27,1322100,23.090482711791992
6/29/2017,26.799999237060547,27.100000381469727,26.450000762939453,26.700000762939453,1345300,22.833921432495117
6/28/2017,26.25,27.149999618530273,26.149999618530273,26.75,1507600,22.876680374145508
6/27/2017,25.200000762939453,26.799999237060547,25.100000381469727,26.299999237060547,2865300,22.491840362548828
6/26/2017,24.600000381469727,25.200000762939453,24.329999923706055,25.100000381469727,1023700,21.465595245361328
6/23/2017,23.649999618530273,24.549999237060547,23.450000762939453,24.5,1226100,20.952476501464844
6/22/2017,23,23.700000762939453,22.799999237060547,23.600000381469727,1079200,20.182790756225586
6/21/2017,24,24.25,22.549999237060547,22.700000762939453,1556400,19.413110733032227
6/20/2017,24.25,24.399999618530273,23.299999237060547,24.100000381469727,1162100,20.610395431518555
6/19/2017,25.399999618530273,25.5,24.649999618530273,24.850000381469727,590400,21.25179672241211
6/16/2017,24.850000381469727,25.450000762939453,24.549999237060547,25.350000381469727,1332900,21.67939567565918
6/15/2017,25.799999237060547,26.100000381469727,24.850000381469727,24.899999618530273,1348000,21.2945556640625
6/14/2017,28.649999618530273,28.700000762939453,25.899999618530273,26,2314900,22.235279083251953
6/13/2017,29.100000381469727,29.100000381469727,27.899999618530273,28.799999237060547,1906600,24.62984848022461
6/12/2017,27.25,28.149999618530273,27.18000030517578,28.149999618530273,1704900,24.073965072631836
6/9/2017,26.899999618530273,27.450000762939453,26.399999618530273,27.049999237060547,1957700,23.133241653442383
6/8/2017,26.25,26.5,25.700000762939453,26.399999618530273,1938000,22.577360153198242
6/7/2017,28.649999618530273,28.899999618530273,25.799999237060547,26.350000381469727,4245400,22.53459930419922
6/6/2017,31.25,31.75,28.549999237060547,28.850000381469727,3494800,24.672609329223633
6/5/2017,31.25,31.549999237060547,30.950000762939453,31.299999237060547,398100,26.767854690551758
6/2/2017,31.200000762939453,31.649999618530273,31.049999237060547,31.350000381469727,435500,26.81061553955078
6/1/2017,31.200000762939453,31.899999618530273,30.950000762939453,31.399999618530273,447400,26.853374481201172
5/31/2017,30.950000762939453,31.25,30.450000762939453,31,628600,26.511293411254883
5/30/2017,32.400001525878906,32.400001525878906,31.450000762939453,31.450000762939453,467800,26.896135330200195
5/26/2017,33.04999923706055,33.29999923706055,32.61000061035156,32.75,782500,28.007902145385742
5/25/2017,33.5,33.900001525878906,32.95000076293945,33.150001525878906,778100,28.3499813079834
5/24/2017,33.5,33.779998779296875,33.099998474121094,33.5,476100,28.649303436279297
5/23/2017,33.5,33.54999923706055,33.04999923706055,33.5,437900,28.649303436279297
5/22/2017,33.400001525878906,33.54999923706055,32.869998931884766,33.29999923706055,274900,28.47825813293457
5/19/2017,32.400001525878906,33.439998626708984,32.29999923706055,33.099998474121094,544400,28.307220458984375
5/18/2017,32.099998474121094,32.45000076293945,31.850000381469727,32.099998474121094,401000,27.45201301574707
5/17/2017,32.349998474121094,32.650001525878906,31.850000381469727,32.400001525878906,576100,27.70857810974121
5/16/2017,32.849998474121094,33.04999923706055,32.5,32.650001525878906,396400,27.92237663269043
5/15/2017,32.900001525878906,33.45000076293945,32.54999923706055,32.70000076293945,553600,27.96514129638672
5/12/2017,31.950000762939453,32.20000076293945,31.850000381469727,32,519400,27.366497039794922
5/11/2017,31.399999618530273,32.150001525878906,31.200000762939453,32.04999923706055,563800,27.409257888793945
5/10/2017,31.450000762939453,32.04999923706055,31.200000762939453,31.75,439200,26.76785659790039
5/9/2017,31.899999618530273,32.150001525878906,31.049999237060547,31.100000381469727,448400,26.2198543548584
5/8/2017,32.099998474121094,32.349998474121094,31.450000762939453,31.950000762939453,512400,26.936473846435547
5/5/2017,30.5,32.25,30.399999618530273,32.20000076293945,737900,27.147245407104492
5/4/2017,32.150001525878906,32.150001525878906,30.5,31.049999237060547,864800,26.177698135375977
5/3/2017,33.5,33.79999923706055,32.099998474121094,32.400001525878906,723600,27.31586265563965
5/2/2017,33.54999923706055,33.880001068115234,33.400001525878906,33.70000076293945,563100,28.411867141723633
5/1/2017,33.349998474121094,33.72999954223633,33.150001525878906,33.400001525878906,344300,28.158945083618164
4/28/2017,33.70000076293945,33.70000076293945,33.099998474121094,33.29999923706055,613500,28.07463264465332
4/27/2017,34.04999923706055,34.5,33.20000076293945,33.29999923706055,632000,28.07463264465332
4/26/2017,34.150001525878906,35.150001525878906,34.150001525878906,34.400001525878906,495200,29.00201988220215
4/25/2017,33.849998474121094,34.400001525878906,33.650001525878906,34.349998474121094,556600,28.959867477416992
4/24/2017,33.900001525878906,34.25,33.400001525878906,33.79999923706055,471500,28.49617576599121
4/21/2017,33.349998474121094,33.599998474121094,32.95000076293945,33.54999923706055,591400,28.285404205322266
4/20/2017,34,34,33.20000076293945,33.45000076293945,392600,28.201093673706055
4/19/2017,34.599998474121094,34.599998474121094,33.45000076293945,33.79999923706055,413400,28.49617576599121
4/18/2017,34.54999923706055,34.70000076293945,34.099998474121094,34.349998474121094,335400,28.959867477416992
4/17/2017,34.70000076293945,34.79999923706055,34.29999923706055,34.75,245000,29.297100067138672
4/13/2017,35.25,35.5,34.5,34.650001525878906,306700,29.212793350219727
4/12/2017,35.25,35.400001525878906,34.79999923706055,35.349998474121094,324100,29.80295181274414
4/11/2017,35.400001525878906,35.650001525878906,35.04999923706055,35.25,332500,29.718645095825195
4/10/2017,35.75,36.04999923706055,35.349998474121094,35.45000076293945,557300,29.887258529663086
4/7/2017,35.70000076293945,35.75,35.16999816894531,35.54999923706055,498500,29.97156524658203
4/6/2017,35.349998474121094,35.79999923706055,34.900001525878906,35.54999923706055,448200,29.97156524658203
4/5/2017,36.25,36.650001525878906,34.95000076293945,34.95000076293945,603900,29.46571922302246
4/4/2017,35.75,35.95000076293945,35.150001525878906,35.70000076293945,348600,30.098026275634766
4/3/2017,35.95000076293945,36.20000076293945,35.25,35.70000076293945,405700,30.098026275634766
3/31/2017,35.400001525878906,36.099998474121094,35.04999923706055,36,635000,30.350955963134766
3/30/2017,35.54999923706055,35.650001525878906,35.099998474121094,35.45000076293945,711900,29.887258529663086
3/29/2017,33.5,35.70000076293945,33.349998474121094,35.45000076293945,1482800,29.887258529663086
3/28/2017,33.349998474121094,33.650001525878906,33,33.54999923706055,497300,28.285404205322266
3/27/2017,32.849998474121094,33.349998474121094,32.5,33.20000076293945,585500,27.99032211303711
3/24/2017,33.650001525878906,33.79999923706055,33.029998779296875,33.099998474121094,586500,27.906015396118164
3/23/2017,33,33.849998474121094,32.900001525878906,33.599998474121094,448400,28.327556610107422
3/22/2017,33.45000076293945,33.880001068115234,32.900001525878906,33.29999923706055,598700,28.07463264465332
3/21/2017,34.349998474121094,34.54999923706055,33.349998474121094,33.75,524000,28.454021453857422
3/20/2017,34.29999923706055,34.95000076293945,34.130001068115234,34.25,422600,28.875560760498047
3/17/2017,34.900001525878906,34.95000076293945,34.150001525878906,34.599998474121094,831300,29.170639038085938
3/16/2017,34.54999923706055,34.75,34.04999923706055,34.54999923706055,391300,29.128482818603516
3/15/2017,33.599998474121094,34.54999923706055,33.400001525878906,34.45000076293945,505600,29.044179916381836
3/14/2017,33.349998474121094,33.97999954223633,32.75,33.099998474121094,560100,27.906015396118164
3/13/2017,33.900001525878906,34.54999923706055,33.79999923706055,34.04999923706055,488400,28.706945419311523
3/10/2017,33.849998474121094,34.04999923706055,32.79999923706055,33.900001525878906,1907500,28.58048439025879
3/9/2017,33.45000076293945,33.599998474121094,32.47999954223633,33.5,921900,28.243249893188477
3/8/2017,35.25,35.400001525878906,33.5,33.650001525878906,677200,28.369712829589844
3/7/2017,36,36,34.75,35.25,886400,29.718645095825195
3/6/2017,36.400001525878906,36.75,35.95000076293945,36,723300,30.350955963134766
3/3/2017,36.150001525878906,36.95000076293945,35.70000076293945,36.45000076293945,728700,30.73033905029297
3/2/2017,35.400001525878906,37.150001525878906,35.400001525878906,36.650001525878906,742300,30.519575119018555
3/1/2017,35.650001525878906,36.599998474121094,35.25,36.099998474121094,1004900,30.061565399169922
2/28/2017,35.45000076293945,35.95000076293945,35.099998474121094,35.150001525878906,1136200,29.270479202270508
2/27/2017,36.54999923706055,36.650001525878906,35.54999923706055,35.70000076293945,1220200,29.728477478027344
2/24/2017,38.25,38.54999923706055,36.08000183105469,36.25,1542000,30.186479568481445
2/23/2017,39.400001525878906,39.45000076293945,38.29999923706055,39.29999923706055,580700,32.72631072998047
2/22/2017,38.95000076293945,39.54999923706055,38.45000076293945,38.650001525878906,411500,32.18503189086914
2/21/2017,40.75,40.849998474121094,39.650001525878906,39.70000076293945,313600,33.05940246582031
2/17/2017,39.70000076293945,40.150001525878906,39.20000076293945,40.04999923706055,564000,33.35085678100586
2/16/2017,40.599998474121094,41,39.70000076293945,39.900001525878906,585700,33.225948333740234
2/15/2017,40.400001525878906,40.599998474121094,40,40.5,362300,33.7255744934082
2/14/2017,40.150001525878906,41,39.70000076293945,40.75,421300,33.93376541137695
2/13/2017,39.79999923706055,40.33000183105469,39.349998474121094,40.099998474121094,369500,33.39249038696289
2/10/2017,40.79999923706055,40.79999923706055,39.70000076293945,40.099998474121094,270600,33.39249038696289
2/9/2017,39.650001525878906,40.150001525878906,39.54999923706055,40.04999923706055,364000,33.35085678100586
2/8/2017,38.900001525878906,39.5,38.349998474121094,39.349998474121094,519600,32.76793670654297
2/7/2017,40.5,40.75,39.20000076293945,39.29999923706055,635300,32.72631072998047
2/6/2017,42.04999923706055,42.400001525878906,40.79999923706055,40.95000076293945,397000,34.100311279296875
2/3/2017,40.849998474121094,42.25,40.599998474121094,42.099998474121094,638900,35.057952880859375
2/2/2017,40.45000076293945,40.900001525878906,39.54999923706055,40.849998474121094,560900,34.01704025268555
2/1/2017,40.04999923706055,40.54999923706055,39.400001525878906,40.20000076293945,447100,33.475765228271484
1/31/2017,39.900001525878906,39.900001525878906,39.20000076293945,39.70000076293945,522000,33.05940246582031
1/30/2017,40.599998474121094,40.599998474121094,39.099998474121094,39.70000076293945,633000,33.05940246582031
1/27/2017,41.400001525878906,41.599998474121094,40.15999984741211,40.79999923706055,340500,33.97540283203125
1/26/2017,41.75,42.150001525878906,41.400001525878906,41.79999923706055,438100,34.808128356933594
1/25/2017,40.849998474121094,41.650001525878906,40.599998474121094,41.349998474121094,633800,34.43339920043945
1/24/2017,40.099998474121094,41,39.56999969482422,40.849998474121094,530800,34.01704025268555
1/23/2017,40.04999923706055,40.45000076293945,39.400001525878906,39.75,498600,33.101036071777344
1/20/2017,40.900001525878906,41.099998474121094,40.400001525878906,40.5,383000,33.7255744934082
1/19/2017,40.54999923706055,40.79999923706055,40.349998474121094,40.5,370200,33.7255744934082
1/18/2017,40.599998474121094,41.060001373291016,40.04999923706055,40.400001525878906,525200,33.64230728149414
1/17/2017,40.5,41.25,40.29999923706055,41.150001525878906,611900,34.2668571472168
1/13/2017,39.650001525878906,40.5,39.650001525878906,40.099998474121094,635200,33.39249038696289
1/12/2017,40.70000076293945,41.04999923706055,39.45000076293945,39.75,812900,33.101036071777344
1/11/2017,39.95000076293945,40.349998474121094,39.650001525878906,40.349998474121094,934100,33.600669860839844
1/10/2017,40.400001525878906,40.5,39.25,39.650001525878906,820000,33.017765045166016
1/9/2017,40.95000076293945,41.25,40.150001525878906,40.400001525878906,693800,33.64230728149414
1/6/2017,42.099998474121094,42.150001525878906,41.349998474121094,41.45000076293945,521900,34.51667785644531
1/5/2017,42.849998474121094,42.849998474121094,41.29999923706055,41.849998474121094,524500,34.849769592285156
1/4/2017,42.45000076293945,42.95000076293945,41.849998474121094,42.79999923706055,336700,35.640869140625
1/3/2017,42.54999923706055,43.04999923706055,41.20000076293945,42.29999923706055,587100,35.22449493408203
12/30/2016,41.849998474121094,42,41.25,41.75,595900,34.76649856567383
12/29/2016,41.75,42.04999923706055,41.45000076293945,41.79999923706055,446200,34.808128356933594
12/28/2016,42.650001525878906,43.20000076293945,41.75,41.849998474121094,715900,34.849769592285156
12/27/2016,42.650001525878906,42.95000076293945,42.099998474121094,42.54999923706055,378900,35.432682037353516
12/23/2016,41.75,42.70000076293945,41.45000076293945,42.349998474121094,642200,35.266136169433594
12/22/2016,41.900001525878906,41.95000076293945,41.25,41.79999923706055,570000,34.808128356933594
12/21/2016,41,41.95000076293945,40.599998474121094,41.650001525878906,799000,34.6832275390625
12/20/2016,42,42.20000076293945,40.75,40.900001525878906,634500,34.05867385864258
12/19/2016,41.20000076293945,41.650001525878906,40.70000076293945,41.54999923706055,540500,34.599945068359375
12/16/2016,40.04999923706055,41.29999923706055,39.849998474121094,41.150001525878906,1727400,34.2668571472168
12/15/2016,39.099998474121094,40.349998474121094,38.5,39.75,812200,33.101036071777344
12/14/2016,39.5,40.29999923706055,38.630001068115234,39.20000076293945,1174000,32.64303207397461
12/13/2016,39.54999923706055,40.150001525878906,38.75,39.79999923706055,613100,33.14267349243164
12/12/2016,40.650001525878906,40.650001525878906,38.95000076293945,39.099998474121094,1048600,32.55976104736328
12/9/2016,40.75,40.75,38.59000015258789,39.349998474121094,977400,32.76793670654297
12/8/2016,39.099998474121094,40.349998474121094,38.849998474121094,40.04999923706055,867000,33.35085678100586
12/7/2016,37.95000076293945,38.95000076293945,37.900001525878906,38.900001525878906,804100,32.393218994140625
12/6/2016,37.349998474121094,38.400001525878906,36.79999923706055,38.04999923706055,661800,31.68539047241211
12/5/2016,37.45000076293945,38.20000076293945,37.29999923706055,37.75,873000,31.43557357788086
12/2/2016,36,37.45000076293945,36,36.849998474121094,786000,30.68611717224121
12/1/2016,37,37.04999923706055,35.900001525878906,36.400001525878906,924000,30.311389923095703
11/30/2016,34.599998474121094,36.45000076293945,34.5,36.04999923706055,1713400,30.01993179321289
11/29/2016,33.75,33.849998474121094,32.650001525878906,33,625700,27.480104446411133
11/28/2016,35.75,35.97999954223633,34.04999923706055,34.400001525878906,690700,28.64592742919922
11/25/2016,35,35.70000076293945,34.849998474121094,35.599998474121094,277600,29.64520263671875
11/23/2016,34.45000076293945,35.29999923706055,34.45000076293945,35.150001525878906,616600,29.270479202270508
11/22/2016,36.04999923706055,36.04999923706055,34.20000076293945,34.95000076293945,778800,29.103931427001953
11/21/2016,35.20000076293945,35.75,34.54999923706055,35.650001525878906,626200,29.686845779418945
11/18/2016,34.45000076293945,35.25,34,34.349998474121094,577200,28.604290008544922
11/17/2016,33.849998474121094,34.45000076293945,33.150001525878906,34.400001525878906,578500,28.64592742919922
11/16/2016,33.150001525878906,33.849998474121094,32.70000076293945,33.099998474121094,455700,27.56337547302246
11/15/2016,33.400001525878906,33.900001525878906,33.150001525878906,33.599998474121094,836700,27.60501480102539
11/14/2016,33.5,33.5,32,32.599998474121094,653600,26.78343391418457
11/11/2016,33.099998474121094,33.54999923706055,32.25,33.349998474121094,746900,27.399620056152344
11/10/2016,33.650001525878906,34.099998474121094,32.70000076293945,33.400001525878906,789300,27.44070053100586
11/9/2016,31.899999618530273,33.70000076293945,31.760000228881836,33.150001525878906,834300,27.235309600830078
11/8/2016,31.149999618530273,33.45000076293945,31.149999618530273,32.150001525878906,632100,26.413728713989258
11/7/2016,29.899999618530273,32.400001525878906,29,32,899000,26.29048728942871
11/4/2016,30.950000762939453,31.149999618530273,29.649999618530273,30.600000381469727,855800,25.140281677246094
11/3/2016,31.149999618530273,31.25,30.25,31.200000762939453,611500,25.633228302001953
11/2/2016,30.700000762939453,31.200000762939453,29.549999237060547,30.350000381469727,818800,24.934886932373047
11/1/2016,33.400001525878906,33.400001525878906,30.799999237060547,31.299999237060547,742800,25.71538734436035
10/31/2016,32.70000076293945,32.75,31.360000610351562,32.25,1830800,26.49588394165039
10/28/2016,33.25,33.79999923706055,32.79999923706055,32.79999923706055,397100,26.947750091552734
10/27/2016,34.54999923706055,34.75,33.16999816894531,33.400001525878906,433500,27.44070053100586
10/26/2016,33.099998474121094,34.29999923706055,32.900001525878906,34.25,533200,28.139041900634766
10/25/2016,34.95000076293945,35.349998474121094,33.79999923706055,34,600500,27.933643341064453
10/24/2016,34.79999923706055,35.400001525878906,33.70000076293945,34.900001525878906,629600,28.673067092895508
10/21/2016,34.45000076293945,35.08000183105469,34.25,34.79999923706055,418900,28.59090232849121
10/20/2016,34.150001525878906,34.900001525878906,33.95000076293945,34.79999923706055,191400,28.59090232849121
10/19/2016,34.5,34.849998474121094,33.900001525878906,34.650001525878906,433300,28.46767234802246
10/18/2016,35.150001525878906,35.150001525878906,33.16999816894531,34.04999923706055,344100,27.9747257232666
10/17/2016,33.599998474121094,33.75,33.04999923706055,33.400001525878906,302400,27.44070053100586
10/14/2016,33.349998474121094,33.79999923706055,33.09000015258789,33.54999923706055,518200,27.563936233520508
10/13/2016,33.189998626708984,33.689998626708984,32.65999984741211,33.220001220703125,465200,27.292818069458008
10/12/2016,32.540000915527344,34.119998931884766,32.290000915527344,33.540000915527344,689500,27.555723190307617
10/11/2016,32.84000015258789,33.099998474121094,31.8799991607666,32.709999084472656,902700,26.873809814453125
10/10/2016,33.90999984741211,34.61000061035156,32.529998779296875,33.029998779296875,2098100,27.1367130279541
10/7/2016,35.02000045776367,35.02000045776367,33.880001068115234,34.27000045776367,549700,28.15546989440918
10/6/2016,35.9900016784668,36.0099983215332,34.54999923706055,34.880001068115234,736100,28.656633377075195
10/5/2016,35.72999954223633,36.15999984741211,35.36000061035156,35.43000030517578,1019400,29.10849952697754
10/4/2016,35.22999954223633,35.22999954223633,34.5,35.11000061035156,718800,28.845592498779297
10/3/2016,35.45000076293945,35.45000076293945,34.439998626708984,34.880001068115234,694900,28.656633377075195
9/30/2016,34.2599983215332,35.45000076293945,33.75,35.36000061035156,955600,29.05099105834961
9/29/2016,33.869998931884766,34.13999938964844,33.08000183105469,33.58000183105469,826100,27.588581085205078
9/28/2016,32.16999816894531,33.900001525878906,31.799999237060547,33.529998779296875,870400,27.547502517700195
9/27/2016,31.670000076293945,32.41999816894531,31.420000076293945,31.739999771118164,539700,26.076879501342773
9/26/2016,33.16999816894531,33.20000076293945,32.2400016784668,32.439998626708984,702400,26.6519832611084
9/23/2016,33.15999984741211,33.83000183105469,32.5,32.5,497100,26.701278686523438
9/22/2016,34.09000015258789,34.150001525878906,33.09000015258789,33.5,442200,27.522855758666992
9/21/2016,33.25,33.54999923706055,32.75,33.2400016784668,548300,27.309247970581055
9/20/2016,33.099998474121094,33.56999969482422,32.41999816894531,32.5,511400,26.701278686523438
9/19/2016,33.720001220703125,34.40999984741211,33.189998626708984,33.220001220703125,528600,27.292818069458008
9/16/2016,32.7599983215332,33.380001068115234,32.02000045776367,33.2400016784668,994100,27.309247970581055
9/15/2016,33.22999954223633,33.81999969482422,33.08000183105469,33.2599983215332,506000,27.32567596435547
9/14/2016,33.65999984741211,34.41999816894531,32.880001068115234,33.189998626708984,539000,27.26816749572754
9/13/2016,34.099998474121094,34.43000030517578,33.13999938964844,33.63999938964844,946300,27.637876510620117
9/12/2016,33.68000030517578,35.310001373291016,32.849998474121094,34.790000915527344,716000,28.582685470581055
9/9/2016,34,34.5099983215332,33.61000061035156,34.310001373291016,804900,28.188335418701172
9/8/2016,33.470001220703125,34.869998931884766,33.459999084472656,34.66999816894531,718600,28.484098434448242
9/7/2016,32.16999816894531,33.43000030517578,32.16999816894531,33.31999969482422,683800,27.374971389770508
9/6/2016,31.350000381469727,32.130001068115234,31.299999237060547,32.11000061035156,465200,26.380863189697266
9/2/2016,31.1200008392334,31.670000076293945,31,31.149999618530273,427600,25.592145919799805
9/1/2016,30.850000381469727,31.010000228881836,30.200000762939453,30.639999389648438,538500,25.17314338684082
8/31/2016,30.860000610351562,31.170000076293945,30,31.100000381469727,708100,25.551071166992188
8/30/2016,31.950000762939453,32.2400016784668,30.969999313354492,31.200000762939453,767100,25.633228302001953
8/29/2016,31.559999465942383,31.889999389648438,30.989999771118164,31.84000015258789,687600,26.159038543701172
8/26/2016,31.309999465942383,31.899999618530273,31.139999389648438,31.700000762939453,852900,26.044015884399414
8/25/2016,31.229999542236328,31.559999465942383,30.81999969482422,31.239999771118164,638200,25.666088104248047
8/24/2016,30.790000915527344,31.540000915527344,30.420000076293945,30.65999984741211,593600,25.1895751953125
8/23/2016,30.940000534057617,31.639999389648438,30.940000534057617,31.399999618530273,581900,25.797542572021484
8/22/2016,31.559999465942383,31.68000030517578,30.93000030517578,31.15999984741211,667800,25.600364685058594
8/19/2016,32.599998474121094,32.77000045776367,31.709999084472656,32.16999816894531,933300,26.43015480041504
8/18/2016,31.31999969482422,32.709999084472656,31.010000228881836,32.68000030517578,909700,26.84916114807129
8/17/2016,31.219999313354492,31.219999313354492,30.59000015258789,31.020000457763672,511400,25.4853458404541
8/16/2016,30.780000686645508,31.43000030517578,30.40999984741211,31.209999084472656,642700,25.641441345214844
8/15/2016,29.75,31,29.75,30.709999084472656,1077400,25.230653762817383
8/12/2016,29.770000457763672,30.3799991607666,28.860000610351562,29.5,749600,24.236543655395508
8/11/2016,28.68000030517578,29.510000228881836,28.31999969482422,29.079999923706055,436000,23.8914852142334
8/10/2016,29.389999389648438,29.389999389648438,28.56999969482422,28.829999923706055,915100,23.316377639770508
8/9/2016,29.8799991607666,29.940000534057617,28.40999984741211,29.049999237060547,824400,23.494300842285156
8/8/2016,29.809999465942383,30.549999237060547,29.170000076293945,29.670000076293945,1086200,23.995731353759766
8/5/2016,31.200000762939453,31.739999771118164,28.860000610351562,29.350000381469727,1099300,23.736928939819336
8/4/2016,30.43000030517578,30.969999313354492,29.739999771118164,30.530000686645508,672100,24.691259384155273
8/3/2016,28.809999465942383,30.68000030517578,28.3700008392334,30.65999984741211,916100,24.796398162841797
8/2/2016,28.549999237060547,29.549999237060547,28,28.520000457763672,1076000,23.065664291381836
8/1/2016,28.93000030517578,29.190000534057617,27.639999389648438,28.3799991607666,1616900,22.952436447143555
7/29/2016,28.690000534057617,29.450000762939453,28.639999389648438,28.959999084472656,1918600,23.4215145111084
7/28/2016,29.299999237060547,29.459999084472656,28.649999618530273,29.170000076293945,487800,23.59135627746582
7/27/2016,30.31999969482422,30.969999313354492,28.93000030517578,29.290000915527344,602200,23.68840789794922
7/26/2016,30.670000076293945,31.350000381469727,30.15999984741211,30.200000762939453,631800,24.424373626708984
7/25/2016,31.040000915527344,31.360000610351562,30.690000534057617,30.8700008392334,407900,24.966236114501953
7/22/2016,31.350000381469727,31.760000228881836,30.5,31.510000228881836,572500,25.48383903503418
7/21/2016,32.22999954223633,32.720001220703125,31.1299991607666,31.139999389648438,776900,25.184602737426758
7/20/2016,32.119998931884766,32.22999954223633,31.280000686645508,32.099998474121094,778200,25.961002349853516
7/19/2016,33.540000915527344,33.56999969482422,32.04999923706055,32.279998779296875,703900,26.106578826904297
7/18/2016,33.369998931884766,33.81999969482422,32.77000045776367,33.4900016784668,616800,27.085174560546875
7/15/2016,33.810001373291016,33.83000183105469,33.04999923706055,33.5,538700,27.093257904052734
7/14/2016,32.7400016784668,33.790000915527344,32.63999938964844,33.38999938964844,568800,27.004295349121094
7/13/2016,33.72999954223633,34.15999984741211,32.15999984741211,32.7400016784668,706300,26.478607177734375
7/12/2016,33.84000015258789,34.18000030517578,33.31999969482422,33.880001068115234,846500,27.400590896606445
7/11/2016,33.2400016784668,33.41999816894531,32.65999984741211,32.84000015258789,575500,26.559486389160156
7/8/2016,32.27000045776367,33.38999938964844,31.860000610351562,32.75,662300,26.4866943359375
7/7/2016,32.779998779296875,33.150001525878906,31.260000228881836,31.75,606800,25.67793846130371
7/6/2016,31.56999969482422,32.08000183105469,30.989999771118164,32.029998779296875,647600,25.904390335083008
7/5/2016,32.310001373291016,32.70000076293945,30.850000381469727,31.860000610351562,606800,25.766902923583984
7/1/2016,32.599998474121094,34.279998779296875,32.290000915527344,33.2599983215332,525500,26.899158477783203
6/30/2016,32.40999984741211,32.689998626708984,31.6200008392334,32.560001373291016,868100,26.333032608032227
6/29/2016,32.029998779296875,32.880001068115234,31.469999313354492,32.72999954223633,957000,26.470518112182617
6/28/2016,30.360000610351562,32.470001220703125,30.280000686645508,31.6200008392334,1176100,25.572803497314453
6/27/2016,30.940000534057617,30.979999542236328,28.770000457763672,29.329999923706055,1153600,23.720752716064453
6/24/2016,30.690000534057617,31.84000015258789,30.579999923706055,31.280000686645508,2263900,25.29782485961914
6/23/2016,31.520000457763672,33.0099983215332,31.290000915527344,32.959999084472656,1068900,26.656532287597656
6/22/2016,31.110000610351562,31.670000076293945,30.59000015258789,30.950000762939453,858600,25.03093719482422
6/21/2016,30.260000228881836,30.8799991607666,29,30.850000381469727,1248900,24.950061798095703
6/20/2016,30.799999237060547,31.110000610351562,29.90999984741211,30.360000610351562,1250500,24.553773880004883
6/17/2016,28.690000534057617,30.549999237060547,28.100000381469727,29.8700008392334,4671300,24.157487869262695
6/16/2016,29.5,30.040000915527344,27.959999084472656,29.040000915527344,811900,23.486215591430664
6/15/2016,30.06999969482422,31.149999618530273,29.530000686645508,30.34000015258789,1058700,24.537593841552734
6/14/2016,29.739999771118164,30.360000610351562,28.950000762939453,29.700000762939453,859300,24.019994735717773
6/13/2016,30.649999618530273,31.209999084472656,29.709999084472656,30.020000457763672,824500,24.27879524230957
6/10/2016,32.65999984741211,32.88999938964844,30.899999618530273,31.170000076293945,784400,25.208864212036133
6/9/2016,33.36000061035156,33.86000061035156,33.119998931884766,33.290000915527344,999600,26.92342185974121
6/8/2016,35.619998931884766,35.84000015258789,33.88999938964844,34.0099983215332,717800,27.505727767944336
6/7/2016,33.33000183105469,35.400001525878906,33.25,35.02000045776367,1091300,28.32256507873535
6/6/2016,33.81999969482422,34.439998626708984,33.27000045776367,33.45000076293945,614000,27.052820205688477
6/3/2016,33.13999938964844,33.59000015258789,32.5099983215332,33.08000183105469,496500,26.753583908081055
6/2/2016,31.950000762939453,33.150001525878906,31.950000762939453,32.9900016784668,640800,26.6807918548584
6/1/2016,31.170000076293945,33.20000076293945,31.139999389648438,32.5099983215332,1104700,26.292591094970703
5/31/2016,29.5,32.41999816894531,29.209999084472656,31.790000915527344,2199100,25.710290908813477
5/27/2016,28,29.68000030517578,27.350000381469727,29.5,704900,23.85824203491211
5/26/2016,30.540000915527344,30.540000915527344,28.15999984741211,28.350000381469727,810200,22.92817497253418
5/25/2016,29.610000610351562,30.610000610351562,29.31999969482422,29.950000762939453,648100,24.22218132019043
5/24/2016,30.729999542236328,30.729999542236328,28.90999984741211,29.139999389648438,706400,23.567087173461914
5/23/2016,30.530000686645508,30.8799991607666,29.799999237060547,30.3799991607666,341200,24.5699462890625
5/20/2016,31.020000457763672,31.280000686645508,30.1299991607666,31.09000015258789,388300,25.1441593170166
5/19/2016,29.540000915527344,31.079999923706055,29.010000228881836,30.84000015258789,306900,24.941972732543945
5/18/2016,30.649999618530273,31.3700008392334,29.770000457763672,30.399999618530273,751500,24.58612060546875
5/17/2016,30.079999923706055,31.010000228881836,29.760000228881836,30.56999969482422,480700,24.723609924316406
5/16/2016,29.600000381469727,30.350000381469727,29.1299991607666,30.049999237060547,504500,24.303056716918945
5/13/2016,28.149999618530273,29.540000915527344,28.110000610351562,28.780000686645508,435200,23.275941848754883
5/12/2016,29.229999542236328,29.90999984741211,27.649999618530273,28.649999618530273,402800,23.170799255371094
5/11/2016,28.18000030517578,29.479999542236328,27.34000015258789,29.350000381469727,635700,23.372989654541016
5/10/2016,27.959999084472656,30.18000030517578,27.8700008392334,28.670000076293945,769600,22.831470489501953
5/9/2016,28.549999237060547,28.8799991607666,26.579999923706055,27.5,652300,21.89973258972168
5/6/2016,28.549999237060547,30.100000381469727,27.5,28.6200008392334,641000,22.791648864746094
5/5/2016,28.739999771118164,29.6299991607666,27.889999389648438,28.239999771118164,506000,22.489038467407227
5/4/2016,28.079999923706055,28.799999237060547,27.329999923706055,28.18000030517578,542900,22.441255569458008
5/3/2016,28.75,28.959999084472656,27,28.030000686645508,764300,22.32180404663086
5/2/2016,30.290000915527344,30.959999084472656,28.329999923706055,29.690000534057617,662100,23.643749237060547
4/29/2016,31.709999084472656,32.13999938964844,29.530000686645508,30.65999984741211,559400,24.41621208190918
4/28/2016,31.190000534057617,32.33000183105469,31,31.25,585900,24.886062622070312
4/27/2016,29.790000915527344,31.479999542236328,29.59000015258789,31.40999984741211,517700,25.013477325439453
4/26/2016,28.639999389648438,29.149999618530273,28.010000228881836,29.1299991607666,349800,23.19779396057129
4/25/2016,29.239999771118164,29.440000534057617,27.31999969482422,28.09000015258789,466400,22.369583129882812
4/22/2016,29.559999465942383,29.959999084472656,29.190000534057617,29.479999542236328,535500,23.476518630981445
4/21/2016,28.3799991607666,29.15999984741211,27.75,28.770000457763672,348800,22.911108016967773
4/20/2016,27.670000076293945,28.299999237060547,27.329999923706055,28.209999084472656,520500,22.46514892578125
4/19/2016,25.389999389648438,28.209999084472656,25.389999389648438,27.989999771118164,678700,22.289949417114258
4/18/2016,24,25.530000686645508,23.309999465942383,25.209999084472656,651100,20.07608413696289
4/15/2016,24.530000686645508,24.950000762939453,24.049999237060547,24.31999969482422,392600,19.36733055114746
4/14/2016,25.760000228881836,25.84000015258789,24.34000015258789,25.030000686645508,521900,19.932741165161133
4/13/2016,26.270000457763672,26.420000076293945,25.219999313354492,25.68000030517578,595400,20.450368881225586
4/12/2016,23.540000915527344,26.149999618530273,22.989999771118164,26.1200008392334,697800,20.800765991210938
4/11/2016,23.15999984741211,23.75,22.829999923706055,23.200000762939453,358000,18.475414276123047
4/8/2016,22.8700008392334,24.030000686645508,22.6299991607666,23.110000610351562,339300,18.403743743896484
4/7/2016,21.520000457763672,22.639999389648438,21.420000076293945,22.309999465942383,617600,17.76665687561035
4/6/2016,21.059999465942383,22.219999313354492,20.75,21.899999618530273,403900,17.44015121459961
4/5/2016,20.059999465942383,21.15999984741211,20.059999465942383,20.649999618530273,342100,16.444705963134766
4/4/2016,21.040000915527344,21.59000015258789,20.309999465942383,20.459999084472656,523500,16.29340362548828
4/1/2016,21.540000915527344,21.8700008392334,20.43000030517578,21.030000686645508,517700,16.747323989868164
3/31/2016,21.6299991607666,22.690000534057617,21.479999542236328,22.399999618530273,584800,17.838329315185547
3/30/2016,22.219999313354492,22.770000457763672,21.18000030517578,21.700000762939453,469700,17.280881881713867
3/29/2016,20.920000076293945,22.100000381469727,20.34000015258789,21.739999771118164,558500,17.31273651123047
3/28/2016,22.219999313354492,22.219999313354492,20.920000076293945,21.420000076293945,396700,17.057905197143555
3/24/2016,20.780000686645508,23.329999923706055,20.530000686645508,22.239999771118164,637800,17.710914611816406
3/23/2016,22.770000457763672,23.1200008392334,20.56999969482422,20.969999313354492,393200,16.69954490661621
3/22/2016,21.8700008392334,23.6200008392334,21.280000686645508,23.219999313354492,382200,18.49134063720703
3/21/2016,23.719999313354492,23.8700008392334,22.170000076293945,22.329999923706055,440400,17.782583236694336
3/18/2016,24.389999389648438,24.950000762939453,22.950000762939453,23.920000076293945,1109200,19.048786163330078
3/17/2016,23.149999618530273,24.1299991607666,22.329999923706055,23.760000228881836,667100,18.921371459960938
3/16/2016,19.360000610351562,23.040000915527344,19.360000610351562,22.8700008392334,1085600,18.212614059448242
3/15/2016,20.25,20.260000228881836,18.75,19.34000015258789,398000,15.401485443115234
3/14/2016,20.920000076293945,21.18000030517578,19.729999542236328,20.559999465942383,269600,16.373037338256836
3/11/2016,20.329999923706055,21.34000015258789,20.329999923706055,21.229999542236328,318900,16.906591415405273
3/10/2016,19.610000610351562,20.200000762939453,18.90999984741211,19.809999465942383,443600,15.775774955749512
3/9/2016,20.479999542236328,20.520000457763672,19.18000030517578,19.729999542236328,668300,15.712065696716309
3/8/2016,22.760000228881836,23.549999237060547,20.40999984741211,20.520000457763672,729600,16.3411808013916
3/7/2016,21.639999389648438,22.90999984741211,21.329999923706055,22.850000381469727,610300,18.196687698364258
3/4/2016,21.40999984741211,23.3799991607666,20.979999542236328,21.649999618530273,1341900,17.241064071655273
3/3/2016,19.170000076293945,21.299999237060547,19.09000015258789,21.200000762939453,867500,16.882705688476562
3/2/2016,18.209999084472656,19.93000030517578,17.860000610351562,19.84000015258789,791600,15.441304206848145
3/1/2016,19.329999923706055,19.40999984741211,18.15999984741211,18.6200008392334,848600,14.49178695678711
2/29/2016,19.200000762939453,19.93000030517578,18.1200008392334,19,1219600,14.787538528442383
2/26/2016,17.780000686645508,19.329999923706055,17.770000457763672,18.979999542236328,1349300,14.771974563598633
2/25/2016,16.3799991607666,18.09000015258789,16.139999389648438,17.489999771118164,1440400,13.612317085266113
2/24/2016,15.989999771118164,16.780000686645508,15.510000228881836,16.549999237060547,755000,12.880724906921387
2/23/2016,18.06999969482422,18.489999771118164,16.43000030517578,16.459999084472656,753500,12.810677528381348
2/22/2016,17.559999465942383,18.959999084472656,17.520000457763672,18.489999771118164,504100,14.390610694885254
2/19/2016,16.799999237060547,17.059999465942383,15.739999771118164,17.030000686645508,529500,13.25430679321289
2/18/2016,18.299999237060547,18.299999237060547,16.860000610351562,17.59000015258789,1271300,13.690147399902344
2/17/2016,17.239999771118164,18.34000015258789,17.030000686645508,17.989999771118164,1228900,14.001463890075684
2/16/2016,16.239999771118164,16.989999771118164,15.539999961853027,16.90999984741211,691600,13.160910606384277
2/12/2016,15.319999694824219,16.56999969482422,14.979999542236328,15.579999923706055,485900,12.125781059265137
2/11/2016,15.699999809265137,15.829999923706055,13.979999542236328,14.819999694824219,704000,11.534279823303223
2/10/2016,16,16.549999237060547,15.199999809265137,15.979999542236328,863300,12.437097549438477
2/9/2016,18.790000915527344,18.899999618530273,15.140000343322754,15.739999771118164,2239300,12.2503080368042
2/8/2016,21.329999923706055,21.610000610351562,18.979999542236328,19.290000915527344,578900,15.01324462890625
2/5/2016,22.010000228881836,22.68000030517578,21.559999465942383,22.239999771118164,424400,17.3092041015625
2/4/2016,21.1299991607666,23.559999465942383,20.860000610351562,22.68000030517578,749500,17.651653289794922
2/3/2016,21.139999389648438,21.350000381469727,19.709999084472656,20.889999389648438,596800,16.25851058959961
2/2/2016,20.440000534057617,21.520000457763672,20.09000015258789,20.68000030517578,478200,16.095067977905273
2/1/2016,21.450000762939453,21.770000457763672,20.149999618530273,21.34000015258789,455300,16.60874366760254
1/29/2016,21.920000076293945,22.790000915527344,21.549999237060547,22.139999389648438,758200,17.231374740600586
1/28/2016,21.690000534057617,22.780000686645508,21.350000381469727,21.75,677500,16.414169311523438
1/27/2016,20.299999237060547,21.90999984741211,19.969999313354492,20.81999969482422,810300,15.712321281433105
1/26/2016,19.920000076293945,21.049999237060547,18.84000015258789,20.68000030517578,496600,15.606667518615723
1/25/2016,19.520000457763672,21.170000076293945,19.110000610351562,19.350000381469727,725800,14.602949142456055
1/22/2016,19.559999465942383,21.190000534057617,19.350000381469727,20.219999313354492,1271000,15.259514808654785
1/21/2016,15.670000076293945,18.700000762939453,15.489999771118164,18.68000030517578,1908100,14.097321510314941
1/20/2016,16.719999313354492,16.940000534057617,15.140000343322754,15.489999771118164,1346600,11.689906120300293
1/19/2016,20.1299991607666,20.1299991607666,16.8700008392334,16.93000030517578,1464600,12.776637077331543
1/15/2016,21.229999542236328,21.979999542236328,18.479999542236328,19.75,2496700,14.904820442199707
1/14/2016,20.8700008392334,23.479999542236328,20.280000686645508,22.959999084472656,976000,17.32732582092285
1/13/2016,23.479999542236328,24.079999923706055,19.93000030517578,20.780000686645508,737300,15.682134628295898
1/12/2016,24.3799991607666,25.270000457763672,21.8700008392334,23.479999542236328,778800,17.719755172729492
1/11/2016,25.43000030517578,25.469999313354492,23.739999771118164,24.219999313354492,552000,18.278215408325195
1/8/2016,24.690000534057617,26.3799991607666,24.059999465942383,25.309999465942383,661000,19.10080909729004
1/7/2016,25.309999465942383,25.809999465942383,24.06999969482422,24.440000534057617,607800,18.44424057006836
1/6/2016,27.81999969482422,27.81999969482422,24.81999969482422,26.110000610351562,713200,19.704551696777344
1/5/2016,28.700000762939453,28.81999969482422,28,28.65999984741211,590900,21.62896728515625
1/4/2016,28.270000457763672,28.889999389648438,27.649999618530273,28.700000762939453,558800,21.659156799316406
12/31/2015,27.389999389648438,28.93000030517578,27.190000534057617,28.860000610351562,857100,21.779905319213867
12/30/2015,27.549999237060547,28.030000686645508,26.979999542236328,27.6299991607666,810600,20.851654052734375
12/29/2015,29.719999313354492,30.329999923706055,28.190000534057617,28.270000457763672,717600,21.334644317626953
12/28/2015,28.979999542236328,29.920000076293945,28.329999923706055,29.139999389648438,759200,21.991207122802734
12/24/2015,29.989999771118164,30.920000076293945,29.469999313354492,29.530000686645508,343200,22.28553581237793
12/23/2015,27.290000915527344,30.59000015258789,27.100000381469727,29.799999237060547,968800,22.489295959472656
12/22/2015,24.239999771118164,26.81999969482422,24.219999313354492,26.719999313354492,1141800,20.164897918701172
12/21/2015,24.229999542236328,24.290000915527344,22.559999465942383,24.100000381469727,802500,18.187654495239258
12/18/2015,24.729999542236328,25.260000228881836,24.09000015258789,24.209999084472656,1255100,18.270666122436523
12/17/2015,26.459999084472656,26.459999084472656,24.31999969482422,25.34000015258789,662200,19.12344741821289
12/16/2015,25.25,26.84000015258789,25.049999237060547,26.459999084472656,573300,19.96868324279785
12/15/2015,26.209999084472656,26.899999618530273,25.280000686645508,25.3700008392334,560500,19.146085739135742
12/14/2015,26.809999465942383,26.940000534057617,24.540000915527344,25.739999771118164,1170700,19.425317764282227
12/11/2015,28.760000228881836,28.760000228881836,26.639999389648438,26.75,745400,20.187541961669922
12/10/2015,30.329999923706055,30.6200008392334,28.920000076293945,29.489999771118164,680400,22.255346298217773
12/9/2015,27.860000610351562,30.649999618530273,27.860000610351562,30.34000015258789,1321500,22.896821975708008
12/8/2015,25.90999984741211,28.049999237060547,25.90999984741211,27.6299991607666,700300,20.851654052734375
12/7/2015,29.600000381469727,29.600000381469727,26.049999237060547,26.8700008392334,666700,20.278100967407227
12/4/2015,30.440000534057617,30.5,27.579999923706055,29.610000610351562,809500,22.345911026000977
12/3/2015,31.8799991607666,32.66999816894531,30.43000030517578,30.700000762939453,533800,23.168502807617188
12/2/2015,33.529998779296875,33.529998779296875,31.3700008392334,31.649999618530273,608700,23.88544464111328
12/1/2015,34.72999954223633,35.099998474121094,33.5099983215332,34,453900,25.658926010131836
11/30/2015,35.58000183105469,35.7599983215332,34.15999984741211,34.72999954223633,622200,26.209840774536133
11/27/2015,34.90999984741211,35.34000015258789,34.630001068115234,35.2599983215332,145200,26.609817504882812
11/25/2015,34.790000915527344,36.09000015258789,34.65999984741211,35.459999084472656,516800,26.76075553894043
11/24/2015,34.470001220703125,35.310001373291016,33.599998474121094,34.7599983215332,701200,26.232479095458984
11/23/2015,34.380001068115234,34.66999816894531,33.77000045776367,34.119998931884766,583300,25.749486923217773
11/20/2015,34.790000915527344,35.06999969482422,33.939998626708984,34.36000061035156,559300,25.930612564086914
11/19/2015,35.529998779296875,36.02000045776367,34.470001220703125,34.70000076293945,385900,26.187206268310547
11/18/2015,35.779998779296875,36.63999938964844,35.31999969482422,35.650001525878906,530100,26.904146194458008
11/17/2015,35.5,36.59000015258789,34.5099983215332,35.650001525878906,681600,26.904146194458008
11/16/2015,34.08000183105469,36.290000915527344,33.220001220703125,36.2400016784668,778800,27.349395751953125
11/13/2015,34.02000045776367,34.099998474121094,32.4900016784668,33.66999816894531,782700,25.409883499145508
11/12/2015,35.0099983215332,35.11000061035156,33.61000061035156,33.939998626708984,486500,25.613649368286133
11/11/2015,37.38999938964844,38.119998931884766,35.36000061035156,35.88999938964844,610300,26.74566078186035
11/10/2015,37.79999923706055,37.84000015258789,36.61000061035156,37.41999816894531,605500,27.88583755493164
11/9/2015,39.209999084472656,40.29999923706055,37.90999984741211,38.060001373291016,695200,28.362768173217773
11/6/2015,38.04999923706055,39.93000030517578,36.310001373291016,39.4900016784668,1567200,29.428422927856445
11/5/2015,42.689998626708984,43.09000015258789,39.84000015258789,40.08000183105469,900000,29.868101119995117
11/4/2015,45.43000030517578,45.650001525878906,41,42.91999816894531,1268600,31.984495162963867
11/3/2015,45.810001373291016,46.619998931884766,45.369998931884766,45.41999816894531,627100,33.84752655029297
11/2/2015,45.209999084472656,47.189998626708984,44.970001220703125,45.709999084472656,463600,34.06364059448242
10/30/2015,46.38999938964844,46.38999938964844,44.86000061035156,45.54999923706055,640700,33.94441223144531
10/29/2015,45.58000183105469,47.130001068115234,45.279998779296875,46.16999816894531,341600,34.40643310546875
10/28/2015,44.189998626708984,46.5,43.90999984741211,45.650001525878906,566500,34.01893615722656
10/27/2015,45.619998931884766,45.79999923706055,42.61000061035156,43.88999938964844,533900,32.70735549926758
10/26/2015,47.54999923706055,48.02000045776367,45.81999969482422,46.09000015258789,387200,34.346824645996094
10/23/2015,47.61000061035156,49.209999084472656,46.810001373291016,47.95000076293945,465500,35.73291778564453
10/22/2015,49.04999923706055,49.29999923706055,46.150001525878906,47.47999954223633,304100,35.382667541503906
10/21/2015,50.52000045776367,50.91999816894531,48.43000030517578,48.7400016784668,278900,36.32163619995117
10/20/2015,50.849998474121094,52.18000030517578,50.58000183105469,50.7400016784668,427800,37.81205749511719
10/19/2015,51.119998931884766,51.380001068115234,49.43000030517578,51.04999923706055,246700,38.04307174682617
10/16/2015,52.540000915527344,52.7400016784668,51.36000061035156,51.900001525878906,257600,38.676513671875
10/15/2015,50.939998626708984,52.02000045776367,49.43000030517578,51.959999084472656,345000,38.72121810913086
10/14/2015,51.400001525878906,52.04999923706055,50.040000915527344,50.959999084472656,409300,37.976009368896484
10/13/2015,51.619998931884766,53.2400016784668,50.58000183105469,51.45000076293945,693800,38.341163635253906
10/12/2015,53.34000015258789,53.34000015258789,50.22999954223633,51.81999969482422,461700,38.616886138916016
10/9/2015,54.43000030517578,54.43000030517578,52.380001068115234,53.38999938964844,335700,39.7868766784668
10/8/2015,53.5,54.61000061035156,52.540000915527344,54.130001068115234,316900,40.33833312988281
10/7/2015,53.0099983215332,55.540000915527344,52.83000183105469,53.439998626708984,574800,39.82413101196289
10/6/2015,50.54999923706055,53.279998779296875,50.470001220703125,51.880001068115234,461100,38.661598205566406
10/5/2015,48.619998931884766,50.75,48.619998931884766,50.619998931884766,317900,37.722625732421875
10/2/2015,44.95000076293945,48.40999984741211,43.81999969482422,48.02000045776367,477300,35.78508758544922
10/1/2015,44.290000915527344,46.97999954223633,43.779998779296875,45.81999969482422,597500,34.14561462402344
9/30/2015,42.15999984741211,43.72999954223633,41.439998626708984,43.2400016784668,675100,32.22296905517578
9/29/2015,44.880001068115234,45.54999923706055,41.65999984741211,41.810001373291016,581700,31.157312393188477
9/28/2015,47.15999984741211,47.7400016784668,44.529998779296875,44.720001220703125,636500,33.32588577270508
9/25/2015,49.09000015258789,49.09000015258789,46.61000061035156,47.91999816894531,398600,35.7105598449707
9/24/2015,48.630001068115234,49,47.150001525878906,48.52000045776367,459500,36.157691955566406
9/23/2015,50.72999954223633,51.099998474121094,48.38999938964844,49.02000045776367,435500,36.53029251098633
9/22/2015,50.40999984741211,51.29999923706055,50.13999938964844,50.7599983215332,416600,37.82695770263672
9/21/2015,50.189998626708984,52.2599983215332,49.68000030517578,50.84000015258789,363000,37.8865852355957
9/18/2015,49.790000915527344,50.709999084472656,49.099998474121094,50.02000045776367,506000,37.2755126953125
9/17/2015,50.5099983215332,51.790000915527344,50.27000045776367,50.36000061035156,311100,37.52887725830078
9/16/2015,49.849998474121094,50.709999084472656,49.2400016784668,50.54999923706055,288100,37.67047119140625
9/15/2015,48.95000076293945,50.279998779296875,48.79999923706055,49.369998931884766,347300,36.79112243652344
9/14/2015,48.88999938964844,49.43000030517578,48.119998931884766,48.91999816894531,365200,36.45577621459961
9/11/2015,50.630001068115234,50.709999084472656,48.959999084472656,49.209999084472656,491800,36.6718864440918
9/10/2015,51.9900016784668,52.22999954223633,50.66999816894531,51.33000183105469,461100,38.25173568725586
9/9/2015,52.34000015258789,53.310001373291016,51.400001525878906,51.47999954223633,381900,38.36351776123047
9/8/2015,52.4900016784668,52.91999816894531,51.279998779296875,52.15999984741211,429100,38.87025833129883
9/4/2015,51.81999969482422,52.97999954223633,51.189998626708984,51.2400016784668,466600,38.184669494628906
9/3/2015,53.25,54.279998779296875,51.90999984741211,52.7400016784668,386700,39.30248260498047
9/2/2015,51.84000015258789,53.5,51.31999969482422,53,541300,39.496238708496094
9/1/2015,54.11000061035156,55.25,51.959999084472656,52.369998931884766,469200,39.02675247192383
8/31/2015,54.029998779296875,55.75,52.79999923706055,55,604800,40.98666000366211
8/28/2015,53.86000061035156,54.91999816894531,53.119998931884766,54.59000015258789,603900,40.68111801147461
8/27/2015,51.400001525878906,54.08000183105469,51.22999954223633,53.790000915527344,553700,40.08495330810547
8/26/2015,49.75,50.869998931884766,48.79999923706055,50.380001068115234,555200,37.543785095214844
8/25/2015,51.849998474121094,51.97999954223633,49.63999938964844,49.7400016784668,1494500,37.06685256958008
8/24/2015,49.040000915527344,51.470001220703125,47.54999923706055,50.77000045776367,1072500,37.83442306518555
8/21/2015,52.5099983215332,52.560001373291016,50.66999816894531,51.720001220703125,581900,38.5423698425293
8/20/2015,54.849998474121094,55.70000076293945,52.86000061035156,52.900001525878906,315300,39.421714782714844
8/19/2015,56.369998931884766,57.41999816894531,54.290000915527344,55.31999969482422,248700,41.22512435913086
8/18/2015,57.560001373291016,57.7400016784668,56.59000015258789,57.09000015258789,402200,42.54416275024414
8/17/2015,57.279998779296875,58.29999923706055,56.119998931884766,57.369998931884766,379900,42.752811431884766
8/14/2015,56.63999938964844,57.459999084472656,54.58000183105469,57.41999816894531,588000,42.790077209472656
8/13/2015,57.95000076293945,57.95000076293945,55.650001525878906,56.2599983215332,354500,41.92562484741211
8/12/2015,57.7599983215332,59.11000061035156,56.11000061035156,58.43000030517578,873900,43.22975540161133
8/11/2015,58.54999923706055,59.189998626708984,56.54999923706055,58.029998779296875,702300,42.93380355834961
8/10/2015,54.65999984741211,59.709999084472656,54.09000015258789,59.369998931884766,1235200,43.92521667480469
8/7/2015,57.06999969482422,61.150001525878906,54.29999923706055,54.79999923706055,1585100,40.54407501220703
8/6/2015,60.43000030517578,60.43000030517578,57.9900016784668,59.68000030517578,1561400,44.15456771850586
8/5/2015,67.13999938964844,68.08999633789062,60.33000183105469,60.790000915527344,1437300,44.97581100463867
8/4/2015,68.26000213623047,69.18000030517578,66.36000061035156,66.38999938964844,539100,49.1190071105957
8/3/2015,70.77999877929688,71.86000061035156,67.87000274658203,68.16999816894531,398300,50.43593978881836
7/31/2015,71.37000274658203,72.36000061035156,70.18000030517578,71.08999633789062,315200,52.5963134765625
7/30/2015,72.20999908447266,72.66000366210938,71.25,71.58999633789062,299100,52.966243743896484
7/29/2015,69.7300033569336,72.80000305175781,69.54000091552734,72.52999877929688,344100,53.66171646118164
7/28/2015,69.62999725341797,70.41999816894531,68,69.91999816894531,553200,51.73069763183594
7/27/2015,69.25,69.80000305175781,68.12000274658203,69.6500015258789,521300,51.53093338012695
7/24/2015,71.75,72.80999755859375,69.91999816894531,70,689700,51.78988265991211
7/23/2015,73.2699966430664,73.54000091552734,71.66000366210938,71.75,309100,53.084632873535156
7/22/2015,75.25,75.25,72.20999908447266,73.04000091552734,517700,54.03904342651367
7/21/2015,76.88999938964844,78.05000305175781,75.31999969482422,75.69000244140625,263900,55.99964904785156
7/20/2015,78.16000366210938,78.44999694824219,76.45999908447266,76.51000213623047,333500,56.60634994506836
7/17/2015,78.7699966430664,78.7699966430664,77.4800033569336,78.16000366210938,202600,57.82709884643555
7/16/2015,79.43000030517578,79.72000122070312,78.58999633789062,78.66999816894531,227600,58.204429626464844
7/15/2015,80.52999877929688,80.91999816894531,78.72000122070312,78.9000015258789,306400,58.37458801269531
7/14/2015,79.77999877929688,80.80999755859375,79.63999938964844,80.62000274658203,270100,59.64714050292969
7/13/2015,77.58000183105469,80,77.56999969482422,79.55999755859375,355400,58.8629035949707
7/10/2015,75.97000122070312,77.54000091552734,75.19999694824219,77.4800033569336,379000,57.323997497558594
7/9/2015,75.05999755859375,75.86000061035156,74.79000091552734,75.06999969482422,301500,55.54094314575195
7/8/2015,74.58999633789062,75.47000122070312,73.80999755859375,74.19999694824219,417200,54.897274017333984
7/7/2015,75.16999816894531,75.79000091552734,73.54000091552734,75.62000274658203,532800,55.9478645324707
7/6/2015,75.5,76.26000213623047,74.58000183105469,75.08999633789062,420200,55.55574035644531
7/2/2015,77.81999969482422,78.33999633789062,76.95999908447266,77.5,215200,57.338802337646484
7/1/2015,80.55000305175781,80.55000305175781,77.43000030517578,77.66999816894531,428400,57.46457290649414
6/30/2015,80.0999984741211,81.27999877929688,79.27999877929688,79.4800033569336,308500,58.8037109375
6/29/2015,81.12000274658203,81.30999755859375,79.23999786376953,79.30000305175781,216500,58.6705436706543
6/26/2015,80.83999633789062,81.70999908447266,80.12999725341797,81.61000061035156,299100,60.37958908081055
6/25/2015,82.05000305175781,82.05000305175781,80.26000213623047,80.37999725341797,216100,59.46957778930664
6/24/2015,81.86000061035156,82.23999786376953,81.19999694824219,81.55999755859375,214800,60.34260940551758
6/23/2015,80.98999786376953,82.04000091552734,80.11000061035156,81.86000061035156,258700,60.564552307128906
6/22/2015,79.95999908447266,81.36000061035156,79.22000122070312,81.30999755859375,414400,60.15765380859375
6/19/2015,78.81999969482422,79.02999877929688,78.11000061035156,78.87000274658203,413700,58.35240173339844
6/18/2015,78.06999969482422,78.91000366210938,77.79000091552734,78.8499984741211,272100,58.33759307861328
6/17/2015,76.37000274658203,77.81999969482422,76.2300033569336,77.70999908447266,317700,57.49415588378906
6/16/2015,76.33000183105469,76.77999877929688,75.66000366210938,76.16000366210938,389100,56.347389221191406
6/15/2015,76.61000061035156,76.87999725341797,75.91999816894531,76.27999877929688,372100,56.43617248535156
6/12/2015,77.19999694824219,77.6500015258789,76.66000366210938,77.08000183105469,211400,57.0280647277832
6/11/2015,77.87999725341797,78.41999816894531,77.29000091552734,77.58000183105469,209500,57.397979736328125
6/10/2015,77.81999969482422,77.95999908447266,76.9800033569336,77.8499984741211,222600,57.597740173339844
6/9/2015,77.58000183105469,78,76.68000030517578,77,250300,56.96886444091797
6/8/2015,77.22000122070312,77.8499984741211,76.73999786376953,77.05000305175781,339500,57.005859375
6/5/2015,77.44999694824219,78.2699966430664,76.97000122070312,77.51000213623047,340300,57.346195220947266
6/4/2015,78.30000305175781,78.69000244140625,77.33000183105469,77.51000213623047,353700,57.346195220947266
6/3/2015,79.25,80.06999969482422,78.54000091552734,78.8499984741211,334800,58.33759307861328
6/2/2015,78.79000091552734,80.4800033569336,78.2300033569336,79.47000122070312,285000,58.79631805419922
6/1/2015,79.0999984741211,79.62999725341797,78.22000122070312,78.79000091552734,282100,58.293216705322266
5/29/2015,79.55000305175781,79.94999694824219,78.37999725341797,78.69999694824219,468100,58.22662353515625
5/28/2015,80.37999725341797,80.63999938964844,78.5,79.45999908447266,453800,58.788902282714844
5/27/2015,81.25,81.5,80.16999816894531,80.7300033569336,273400,59.7285270690918
5/26/2015,80.7300033569336,81.66000366210938,80.13999938964844,81.45999908447266,737300,60.26862716674805
5/22/2015,81.72000122070312,82.26000213623047,81.05000305175781,81.66000366210938,1021100,60.416595458984375
5/21/2015,82.2300033569336,82.7699966430664,81.61000061035156,81.98999786376953,388200,60.66073226928711
5/20/2015,81.55000305175781,82.23999786376953,80.70999908447266,82.01000213623047,275400,60.67554473876953
5/19/2015,82.2300033569336,82.48999786376953,80.51000213623047,81.43000030517578,284000,60.24642562866211
5/18/2015,81.16999816894531,82.61000061035156,80.37000274658203,82.48999786376953,456600,61.03066635131836
5/15/2015,79.91000366210938,81.30000305175781,79.27999877929688,81.30000305175781,315200,60.15025329589844
5/14/2015,80.86000061035156,81.37999725341797,79.83000183105469,80.02999877929688,271200,59.210628509521484
5/13/2015,81.69000244140625,82.12999725341797,80.0199966430664,80.83000183105469,295500,59.521366119384766
5/12/2015,80.06999969482422,81.80000305175781,79.4000015258789,80.79000091552734,426000,59.4919319152832
5/11/2015,82.58999633789062,82.58999633789062,79.95999908447266,80.36000061035156,669400,59.17527770996094
5/8/2015,83.83000183105469,83.83000183105469,80.04000091552734,82.48999786376953,778600,60.74374008178711
5/7/2015,83.52999877929688,84.27999877929688,81.80000305175781,84.08999633789062,699400,61.92196273803711
5/6/2015,84.44999694824219,84.51000213623047,82.5199966430664,83.33000183105469,409400,61.36232376098633
5/5/2015,85.31999969482422,85.7300033569336,83.29000091552734,83.63999938964844,443000,61.590579986572266
5/4/2015,85.13999938964844,86.11000061035156,84.37999725341797,84.68000030517578,261600,62.356422424316406
5/1/2015,84.33999633789062,85.5199966430664,83.88999938964844,85.23999786376953,343800,62.7687873840332
4/30/2015,85.08999633789062,85.52999877929688,83.9800033569336,84.19000244140625,294700,61.99559783935547
4/29/2015,84.69999694824219,85.76000213623047,84.5199966430664,85.45999908447266,289900,62.93080520629883
4/28/2015,84.6500015258789,85.08999633789062,83.75,84.80000305175781,365800,62.44479751586914
4/27/2015,85.72000122070312,85.72000122070312,84.0999984741211,84.4800033569336,305000,62.20915222167969
4/24/2015,86.52999877929688,86.58999633789062,85.08000183105469,85.2699966430664,183100,62.790889739990234
4/23/2015,85.69000244140625,86.98999786376953,85.58000183105469,86.12999725341797,336700,63.424163818359375
4/22/2015,84.16000366210938,85.7300033569336,83.91000366210938,85.5199966430664,284500,62.974979400634766
4/21/2015,84.81999969482422,84.91000366210938,83.37000274658203,83.98999786376953,330600,61.84831619262695
4/20/2015,85.27999877929688,85.80999755859375,84.41999816894531,84.7699966430664,311700,62.422698974609375
4/17/2015,85.52999877929688,85.83999633789062,84.83000183105469,85.02999877929688,293500,62.61415100097656
4/16/2015,85.62999725341797,86.4800033569336,84.58000183105469,85.72000122070312,391500,63.122249603271484
4/15/2015,85.3499984741211,86.80000305175781,84.9800033569336,85.77999877929688,454500,63.16643524169922
4/14/2015,83.77999877929688,85.83000183105469,83.5199966430664,84.94999694824219,348200,62.55522918701172
4/13/2015,83.5199966430664,84.3499984741211,83.19000244140625,83.48999786376953,286100,61.480125427246094
4/10/2015,84.55999755859375,84.69999694824219,83.25,83.5,243100,61.48749923706055
4/9/2015,83.97000122070312,84.91999816894531,83.33000183105469,84.1500015258789,436200,61.966148376464844
4/8/2015,84,84.76000213623047,82.73999786376953,83.70999908447266,474500,61.64213562011719
4/7/2015,82.47000122070312,84,82.04000091552734,83.79000091552734,441900,61.7010383605957
4/6/2015,82.68000030517578,83.33999633789062,82.37000274658203,82.68000030517578,395400,60.88365936279297
4/2/2015,81.76000213623047,83.0999984741211,81.76000213623047,82.62000274658203,456100,60.83950424194336
4/1/2015,81.08999633789062,82.56999969482422,81.08999633789062,82.01000213623047,670700,60.39029312133789
3/31/2015,80.4000015258789,81.4000015258789,80.38999938964844,81.33999633789062,560700,59.89691162109375
3/30/2015,79.5,81.3499984741211,79.27999877929688,80.83000183105469,366900,59.521366119384766
3/27/2015,77.22000122070312,79.63999938964844,77.22000122070312,78.87999725341797,464500,58.08543014526367
3/26/2015,77.7699966430664,79.3499984741211,76.79000091552734,77.5,240800,57.06924057006836
3/25/2015,77.91999816894531,78.72000122070312,76.80000305175781,76.97000122070312,383900,56.67894744873047
3/24/2015,78.83999633789062,80.20999908447266,77.4000015258789,77.63999938964844,637100,57.17232894897461
3/23/2015,78.95999908447266,79.38999938964844,77.9000015258789,78.91999816894531,308800,58.114891052246094
3/20/2015,77.8499984741211,79.5199966430664,77.31999969482422,78.88999938964844,553300,58.092796325683594
3/19/2015,77.80999755859375,77.80999755859375,76.12999725341797,77.19000244140625,343600,56.84096145629883
3/18/2015,77.27999877929688,79.43000030517578,76.52999877929688,78.37000274658203,527100,57.70988845825195
3/17/2015,76.2699966430664,77.61000061035156,76.0199966430664,77.54000091552734,388700,57.098690032958984
3/16/2015,77.11000061035156,77.44000244140625,75.5199966430664,76.62000274658203,839900,56.42122268676758
3/13/2015,77.55000305175781,78.05999755859375,76.3499984741211,77.61000061035156,359900,57.150238037109375
3/12/2015,77.75,78.44999694824219,77.1500015258789,77.83000183105469,328500,57.3122444152832
3/11/2015,78.2300033569336,78.91999816894531,76.9800033569336,77.04000091552734,431000,56.73049545288086
3/10/2015,78.27999877929688,78.87999725341797,77.62999725341797,78.75,361700,57.989707946777344
3/9/2015,81.41000366210938,81.5999984741211,79.11000061035156,79.13999938964844,274800,58.276893615722656
3/6/2015,79.7699966430664,81.27999877929688,79.36000061035156,81.19999694824219,488300,59.7938346862793
3/5/2015,79.61000061035156,81.05999755859375,79.12000274658203,80.76000213623047,400400,59.46982192993164
3/4/2015,79.91000366210938,81.19000244140625,78.3499984741211,80.33000183105469,391700,58.90281295776367
3/3/2015,78.0999984741211,80.30000305175781,76.95999908447266,80.2300033569336,617600,58.8294792175293
3/2/2015,77.48999786376953,78.01000213623047,76.36000061035156,77.75,572900,57.0109977722168
2/27/2015,74.55999755859375,78.2699966430664,73.44000244140625,77.30999755859375,1459800,56.68836212158203
2/26/2015,71.94999694824219,72.3499984741211,70.4000015258789,71.08000183105469,522400,52.12015151977539
2/25/2015,71.1500015258789,73.33999633789062,71,72.52999877929688,418600,53.18338394165039
2/24/2015,72.79000091552734,72.87999725341797,70.56999969482422,71.26000213623047,324200,52.25213623046875
2/23/2015,70.97000122070312,72.5,69.83000183105469,72.38999938964844,302600,53.08071517944336
2/20/2015,71.08000183105469,71.95999908447266,70.18000030517578,71.79000091552734,293500,52.64076614379883
2/19/2015,71.3499984741211,71.77999877929688,70.19000244140625,71.12999725341797,541000,52.15681457519531
2/18/2015,72.55000305175781,72.87000274658203,71.76000213623047,72.3499984741211,251000,53.05138397216797
2/17/2015,72.18000030517578,73.4800033569336,71.13999938964844,72.94000244140625,295500,53.4840202331543
2/13/2015,71.87000274658203,73.41999816894531,71.33999633789062,72.47000122070312,327200,53.13938522338867
2/12/2015,70.26000213623047,71.29000091552734,69.9800033569336,70.94000244140625,258200,52.01749801635742
2/11/2015,69.63999938964844,70.48999786376953,68.63999938964844,69.3499984741211,198900,50.85161209106445
2/10/2015,69.66000366210938,70.6500015258789,68.41999816894531,70,411600,51.328243255615234
2/9/2015,70.01000213623047,70.9000015258789,69.12999725341797,69.30999755859375,280400,50.8222770690918
2/6/2015,71,71.63999938964844,69.05999755859375,70.01000213623047,533300,51.335567474365234
2/5/2015,70.31999969482422,71.33999633789062,69.62999725341797,70.72000122070312,562300,51.856178283691406
2/4/2015,69.72000122070312,70.29000091552734,67.43000030517578,69.44000244140625,539800,50.91761016845703
2/3/2015,69.29000091552734,71.12000274658203,68.7699966430664,70.38999938964844,689000,51.614200592041016
2/2/2015,67.58000183105469,69.62999725341797,66.68000030517578,69.2699966430664,478400,50.792945861816406
1/30/2015,66.51000213623047,68.5199966430664,65.72000122070312,67.33000183105469,339200,49.37042999267578
1/29/2015,66.4800033569336,67.37000274658203,64.55000305175781,67.13999938964844,553600,49.23110580444336
1/28/2015,68.75,69.87999725341797,66.2699966430664,66.55999755859375,688300,48.80581283569336
1/27/2015,69,69.94999694824219,67.94000244140625,68.88999938964844,552600,50.51431655883789
1/26/2015,65.72000122070312,69.91000366210938,65.72000122070312,69.43000030517578,1526200,50.9102783203125
1/23/2015,63.849998474121094,65.11000061035156,63.27000045776367,64.05999755859375,282300,46.972660064697266
1/22/2015,63.290000915527344,65.62999725341797,63.029998779296875,64.01000213623047,563400,46.936004638671875
1/21/2015,61.90999984741211,62.63999938964844,61.470001220703125,62.43000030517578,510300,45.77745819091797
1/20/2015,61.70000076293945,62.52000045776367,60.41999816894531,61.689998626708984,650700,45.23484420776367
1/16/2015,59.599998474121094,61.91999816894531,59.310001373291016,61.81999969482422,699700,45.330169677734375
1/15/2015,59.58000183105469,60.20000076293945,58.709999084472656,59.33000183105469,788600,43.50434494018555
1/14/2015,57.63999938964844,58.93000030517578,56.83000183105469,58.5,610400,42.89574432373047
1/13/2015,61.209999084472656,61.4900016784668,57.75,58.459999084472656,756700,42.86640548706055
1/12/2015,63.33000183105469,63.959999084472656,60.09000015258789,60.790000915527344,590600,44.57490158081055
1/9/2015,64.16999816894531,64.44999694824219,63.08000183105469,63.709999084472656,444500,46.71602249145508
1/8/2015,64.0999984741211,65.25,63.439998626708984,64.16999816894531,372900,47.053321838378906
1/7/2015,64.30999755859375,65.6500015258789,62.15999984741211,63.22999954223633,676500,46.36405563354492
1/6/2015,65.77999877929688,66.61000061035156,63,64.26000213623047,751600,47.11932373046875
1/5/2015,68.52999877929688,68.77999877929688,65.30000305175781,65.76000213623047,678400,48.219215393066406
1/2/2015,68.5999984741211,69.8499984741211,68.31999969482422,69.2699966430664,386700,50.792945861816406
12/31/2014,68.31999969482422,69.87999725341797,67.55000305175781,68.38999938964844,518200,50.147674560546875
12/30/2014,68.58999633789062,69.05999755859375,68.02999877929688,68.36000061035156,365700,50.12568283081055
12/29/2014,67.16999816894531,69.27999877929688,67.13999938964844,68.81999969482422,544400,50.46298599243164
12/26/2014,67.02999877929688,67.33000183105469,66.05999755859375,66.8499984741211,215300,49.01846694946289
12/24/2014,66.2300033569336,67.16999816894531,65.7699966430664,66,204700,48.39518356323242
12/23/2014,66.58000183105469,67.27999877929688,66,66.33999633789062,406300,48.64449691772461
12/22/2014,66.23999786376953,67.41000366210938,65.48999786376953,66.16999816894531,359400,48.51984786987305
12/19/2014,66.08999633789062,67.37999725341797,65.20999908447266,67.23999786376953,584500,49.3044319152832
12/18/2014,66.45999908447266,67.08999633789062,64.25,65.87999725341797,515800,48.30719757080078
12/17/2014,61.27000045776367,65.2300033569336,60.90999984741211,65.05000305175781,604400,47.69858932495117
12/16/2014,60.18000030517578,63.349998474121094,59.29999923706055,61.13999938964844,625900,44.831546783447266
12/15/2014,63.95000076293945,64.5,60.709999084472656,61.119998931884766,1173400,44.81688690185547
12/12/2014,62.70000076293945,64.55999755859375,62.5,63.81999969482422,463300,46.796688079833984
12/11/2014,66.12999725341797,67.56999969482422,64.79000091552734,65.01000213623047,780300,47.66926574707031
12/10/2014,68.23999786376953,68.66000366210938,65.19999694824219,65.91999816894531,1352500,48.33652877807617
12/9/2014,67,69.72000122070312,66.20999908447266,69.5999984741211,704800,51.0349235534668
12/8/2014,71,71.58000183105469,66.83999633789062,67.25,1076900,49.31175994873047
12/5/2014,71.98999786376953,72.44999694824219,71.12000274658203,71.2699966430664,375200,52.25947570800781
12/4/2014,72.69000244140625,73.22000122070312,71.87000274658203,72.41999816894531,519000,53.10273361206055
12/3/2014,71.51000213623047,73.0999984741211,71.51000213623047,72.58999633789062,809600,53.22737503051758
12/2/2014,70.55999755859375,72.88999938964844,70.33000183105469,71.62000274658203,1699800,52.51611328125
12/1/2014,73.93000030517578,74,69.7699966430664,70.66000366210938,1141800,51.81219482421875
11/28/2014,76.29000091552734,76.29000091552734,73.83999633789062,73.98999786376953,717500,54.253944396972656
11/26/2014,79.75,80.05000305175781,79.06999969482422,79.29000091552734,586800,58.140220642089844
11/25/2014,80.75,81.5999984741211,79.63999938964844,79.79000091552734,525600,58.50686264038086
11/24/2014,80.4000015258789,80.87000274658203,79.73999786376953,80.44000244140625,506500,58.983482360839844
11/21/2014,82.18000030517578,82.52999877929688,80.1500015258789,80.5199966430664,783500,59.04212951660156
11/20/2014,80.5199966430664,81.19999694824219,80.2300033569336,80.76000213623047,348900,59.21812057495117
11/19/2014,80.31999969482422,81.41999816894531,79.48999786376953,80.66999816894531,459700,59.15213394165039
11/18/2014,79.61000061035156,81.18000030517578,79.25,80.37000274658203,404500,58.932151794433594
11/17/2014,77.91999816894531,79.76000213623047,77.54000091552734,79.41000366210938,791600,58.22822570800781
11/14/2014,76.08000183105469,78.4000015258789,76.08000183105469,78.31999969482422,631100,57.42896270751953
11/13/2014,77.22000122070312,77.4000015258789,75.06999969482422,75.68000030517578,934300,55.4931526184082
11/12/2014,76.69999694824219,78.51000213623047,76.05999755859375,77.69999694824219,481700,56.75434875488281
11/11/2014,77.83000183105469,77.83000183105469,76.05999755859375,77.0199966430664,447500,56.25766372680664
11/10/2014,78.20999908447266,78.9800033569336,76.58999633789062,77.63999938964844,555400,56.71051788330078
11/7/2014,77.18000030517578,80,76.23999786376953,78.0199966430664,900000,56.988094329833984
11/6/2014,74.54000091552734,76.19999694824219,74.54000091552734,75.31999969482422,688700,55.01593017578125
11/5/2014,74.73999786376953,75.69000244140625,74.11000061035156,75.05999755859375,444100,54.82601547241211
11/4/2014,76.23999786376953,76.63999938964844,73.0999984741211,74.4000015258789,486300,54.343936920166016
11/3/2014,77.11000061035156,78.61000061035156,76.30000305175781,76.7699966430664,527700,56.07506561279297
10/31/2014,77.33000183105469,77.3499984741211,75.81999969482422,76.75,933300,56.06045150756836
10/30/2014,76.87999725341797,78,76.5,76.80000305175781,613500,56.09697723388672
10/29/2014,77.02999877929688,78.25,76.69000244140625,77.55000305175781,465400,56.64479064941406
10/28/2014,75.52999877929688,76.63999938964844,74.98999786376953,76.63999938964844,881100,55.9801025390625
10/27/2014,76.93000030517578,76.93000030517578,75,75.76000213623047,704500,55.33733367919922
10/24/2014,77.05000305175781,77.33000183105469,75.41000366210938,76.98999786376953,522100,56.23575210571289
10/23/2014,76.5199966430664,78.3499984741211,76.37999725341797,76.75,501300,56.06045150756836
10/22/2014,78.12000274658203,78.61000061035156,75.77999877929688,75.81999969482422,330800,55.38115310668945
10/21/2014,76,78.5199966430664,75.66999816894531,77.77999877929688,511100,56.81278991699219
10/20/2014,75.94999694824219,76.4800033569336,74.5,75.8499984741211,479800,55.4030647277832
10/17/2014,76.22000122070312,79,74.97000122070312,75.97000122070312,1182000,55.490726470947266
10/16/2014,69.2300033569336,76.37000274658203,69.2300033569336,75.08000183105469,1176000,54.84063720703125
10/15/2014,65.66000366210938,70.7699966430664,63.849998474121094,70.11000061035156,1475200,51.210391998291016
10/14/2014,66.98999786376953,71.88999938964844,64,67.51000213623047,1469900,49.3112907409668
10/13/2014,71.19999694824219,72.26000213623047,66.5999984741211,66.72000122070312,1067800,48.73424530029297
10/10/2014,71.93000030517578,73.19000244140625,69.95999908447266,71.37000274658203,1661700,52.1307373046875
10/9/2014,79.76000213623047,79.80999755859375,71.93000030517578,72.58999633789062,1795300,53.0218620300293
10/8/2014,80.5999984741211,81.05000305175781,75.93000030517578,80.02999877929688,1034900,58.45627212524414
10/7/2014,81.9800033569336,82.29000091552734,80.6500015258789,80.83000183105469,348800,59.04060745239258
10/6/2014,83.3499984741211,83.3499984741211,81.9000015258789,82.27999877929688,346200,60.09972381591797
10/3/2014,82.9000015258789,84.16999816894531,82.80000305175781,83.01000213623047,250400,60.6329460144043
10/2/2014,82.61000061035156,83.22000122070312,80.66000366210938,82.80999755859375,436600,60.48685073852539
10/1/2014,83.31999969482422,84.30999755859375,82.37000274658203,82.93000030517578,511900,60.57450866699219
9/30/2014,84.1500015258789,84.43000030517578,83.16000366210938,83.2699966430664,334800,60.822845458984375
9/29/2014,82.98999786376953,84.37000274658203,82.66000366210938,84.26000213623047,271700,61.54596710205078
9/26/2014,82.94999694824219,84.26000213623047,82.6500015258789,83.75,321500,61.17344665527344
9/25/2014,85.02999877929688,85.02999877929688,82.87000274658203,82.98999786376953,346400,60.61831283569336
9/24/2014,83.9000015258789,85.0999984741211,83.0199966430664,84.91999816894531,294000,62.02805709838867
9/23/2014,84.37999725341797,84.55000305175781,82.93000030517578,83.69000244140625,561300,61.129638671875
9/22/2014,86.66000366210938,86.66000366210938,84.41000366210938,84.51000213623047,231800,61.72859191894531
9/19/2014,87,87.4800033569336,86.7699966430664,86.91000366210938,320300,63.48161315917969
9/18/2014,86.75,87.22000122070312,86.26000213623047,87.05999755859375,161800,63.591156005859375
9/17/2014,86.76000213623047,87.44000244140625,85.97000122070312,86.70999908447266,195800,63.33552932739258
9/16/2014,85.0199966430664,87.05000305175781,85.0199966430664,86.87000274658203,192100,63.45240020751953
9/15/2014,85.08000183105469,85.29000091552734,84.05000305175781,85.08999633789062,200500,62.15222930908203
9/12/2014,86.94999694824219,86.95999908447266,85.05000305175781,85.25,344200,62.26909255981445
